#Digilent WaveForms Oscilloscope Acquisition
#Device Name: Discovery2
#Serial Number: SN:210321AC105F
#Date Time: 2024-11-12 09:53:55.145
#Sample rate: 1600Hz
#Samples: 8000
#Trigger: Source: Channel 1 Type: Edge Condition: Rising Level: 0 V Hyst.: Auto HoldOff: 100 ns
#Channel 1: Range: 200 mV/div Offset: -1 V Attenuation: 1 X

Time (s),Channel 1 (V)
-2.5,1.0009087026153642
-2.499375,1.0025823806994394
-2.49875,1.0052602656339615
-2.498125,1.0086076218021105
-2.4975,1.0096118286525555
-2.496875,1.007938150568481
-2.49625,1.005595001250775
-2.495625,1.0042560587835148
-2.495,1.0045907944003298
-2.494375,1.0059297368675906
-2.49375,1.0076034149516653
-2.493125,1.0092770930357406
-2.4925,1.0122897135870748
-2.491875,1.0163065409888585
-2.49125,1.0203233683906374
-2.490625,1.0223317820915276
-2.49,1.0236707245587873
-2.489375,1.024005460175603
-2.48875,1.024005460175603
-2.488125,1.0219970464747126
-2.4875,1.0186496903065607
-2.486875,1.0156370697552266
-2.48625,1.013293920437521
-2.485625,1.0116202423534466
-2.485,1.0102812998861856
-2.484375,1.0096118286525555
-2.48375,1.0086076218021105
-2.483125,1.0069339437180345
-2.4825,1.005595001250775
-2.481875,1.00526026563396
-2.48125,1.0049255300171451
-2.480625,1.0042560587835148
-2.48,1.0019129094658092
-2.479375,0.9965571395967685
-2.47875,0.9885234847932034
-2.478125,0.9801550943728308
-2.4775,0.9714519683356394
-2.476875,0.9620793710648221
-2.47625,0.9530415094108079
-2.475625,0.9453425902240652
-2.475,0.9393173491213942
-2.474375,0.9349657861028005
-2.47375,0.9309489587010178
-2.473125,0.925927924448792
-2.4725,0.919902683346121
-2.471875,0.9125384997761863
-2.47125,0.9048395805894436
-2.470625,0.8968059257858823
-2.47,0.8884375353655097
-2.469375,0.8800691449451296
-2.46875,0.8713660189079382
-2.468125,0.8633323641043769
-2.4675,0.8549639736839965
-2.466875,0.8462608476468091
-2.46625,0.8385619284600628
-2.465625,0.8325366873573946
-2.465,0.827850388721981
-2.464375,0.8255072394042757
-2.46375,0.8251725037874607
-2.463125,0.8271809174883527
-2.4625,0.8308630092733166
-2.461875,0.8358840435255424
-2.46125,0.8405703421609511
-2.460625,0.8442524339459193
-2.46,0.8455913764131789
-2.459375,0.8462608476468091
-2.45875,0.846595583263624
-2.458125,0.8472650544972542
-2.4575,0.8482692613476994
-2.456875,0.8509471462822198
-2.45625,0.8556334449176338
-2.455625,0.8626628928707467
-2.455,0.8717007545247533
-2.454375,0.8824122942628301
-2.45375,0.8954669833186221
-2.453125,0.9088564079912242
-2.4525,0.9222458326638264
-2.451875,0.9366394641868807
-2.45125,0.9520373025603662
-2.450625,0.9674351409338587
-2.45,0.9811593012232698
-2.449375,0.993879254662248
-2.44875,1.006264472484405
-2.448125,1.0173107478393018
-2.4475,1.0273528163437573
-2.446875,1.03572120676413
-2.44625,1.0450938040349513
-2.445625,1.0541316656889537
-2.445,1.063838998576599
-2.444375,1.074215802697861
-2.44375,1.0855968136695728
-2.443125,1.0969778246412796
-2.4425,1.1080240999961817
-2.441875,1.1177314328838182
-2.44125,1.1264345589210096
-2.440625,1.1358071561918357
-2.44,1.1461839603130977
-2.439375,1.154552350733474
-2.43875,1.1599081206025126
-2.438125,1.1619165343034052
-2.4375,1.1622512699202203
-2.436875,1.1619165343034052
-2.43625,1.1625860055370363
-2.435625,1.1645944192379258
-2.435,1.1672723041724462
-2.434375,1.1689459822565207
-2.43375,1.1699501891069666
-2.433125,1.1696154534901515
-2.4325,1.1686112466397065
-2.431875,1.167607039789261
-2.43125,1.1669375685556311
-2.430625,1.165933361705186
-2.43,1.1639249480042966
-2.429375,1.1602428562193274
-2.42875,1.154552350733474
-2.428125,1.147522902780358
-2.4275,1.1388197767431705
-2.426875,1.1297819150891601
-2.42625,1.1217482602855988
-2.425625,1.1157230191829277
-2.425,1.1107019849307003
-2.424375,1.1066851575289214
-2.42375,1.104007272594401
-2.423125,1.1023335945103263
-2.4225,1.1009946520430653
-2.421875,1.0996557095758053
-2.42125,1.0976472958749148
-2.420625,1.095638882174023
-2.42,1.092291526005874
-2.419375,1.0876052273704633
-2.41875,1.081579986267795
-2.418125,1.0758894807819364
-2.4175,1.0708684465297105
-2.416875,1.0658474122774848
-2.41625,1.0614958492588873
-2.415625,1.0574790218571084
-2.415,1.0541316656889579
-2.414375,1.0524579876048832
-2.41375,1.0521232519880679
-2.413125,1.0531274588385127
-2.4125,1.0541316656889579
-2.411875,1.0551358725394024
-2.41125,1.0551358725394029
-2.410625,1.0541316656889579
-2.41,1.0521232519880674
-2.409375,1.0497801026703608
-2.40875,1.0467674821190267
-2.408125,1.0430853903340611
-2.4075,1.0390685629322822
-2.406875,1.0360559423809448
-2.40625,1.0330433218296093
-2.405625,1.030700172511904
-2.405,1.0293612300446437
-2.404375,1.0293612300446437
-2.40375,1.030365436895089
-2.403125,1.0320391149791637
-2.4025,1.0340475286800546
-2.401875,1.0343822642968696
-2.40125,1.0343822642968696
-2.400625,1.033043321829608
-2.4,1.030030701278274
-2.399375,1.0260138738764932
-2.39875,1.0219970464747143
-2.398125,1.0189844259233765
-2.3975,1.0176454834561168
-2.396875,1.017980219072932
-2.39625,1.017980219072932
-2.395625,1.0173107478393018
-2.395,1.0163065409888568
-2.394375,1.0159718053720417
-2.39375,1.0156370697552266
-2.393125,1.0156370697552266
-2.3925,1.0153023341384115
-2.391875,1.0153023341384115
-2.39125,1.0153023341384115
-2.390625,1.0153023341384115
-2.39,1.0149675985215965
-2.389375,1.0139633916711506
-2.38875,1.0126244492038912
-2.388125,1.0106160355030007
-2.3875,1.006933943718037
-2.386875,1.0032518519330695
-2.38625,1.0012434382321793
-2.385625,1.0012434382321793
-2.385,1.0025823806994405
-2.384375,1.004925530017145
-2.38375,1.0076034149516653
-2.383125,1.0082728861852952
-2.3825,1.0072686793348498
-2.381875,1.006264472484405
-2.38125,1.0069339437180351
-2.380625,1.00793815056848
-2.38,1.0076034149516653
-2.379375,1.0069339437180351
-2.37875,1.005595001250775
-2.378125,1.003251851933068
-2.3775,0.999904495764919
-2.376875,0.9978960820640287
-2.37625,0.996891875213584
-2.375625,0.9972266108303985
-2.375,0.9982308176808438
-2.374375,0.999569760148104
-2.37375,1.001578173848995
-2.373125,1.0032518519330695
-2.3725,1.0035865875498846
-2.371875,1.0032518519330698
-2.37125,1.0029171163162545
-2.370625,1.0032518519330695
-2.37,1.0029171163162545
-2.369375,1.0015781738489933
-2.36875,0.9992350245312889
-2.368125,0.9958876683631384
-2.3675,0.9925403121949894
-2.366875,0.9898624272604662
-2.36625,0.9875192779427621
-2.365625,0.9855108642418717
-2.365,0.9848413930082419
-2.364375,0.9841719217746114
-2.36375,0.9838371861577964
-2.363125,0.9845066573914265
-2.3625,0.9861803354755031
-2.361875,0.9891929560268373
-2.36125,0.9925403121949878
-2.360625,0.9948834615126921
-2.36,0.9958876683631384
-2.359375,0.9948834615126932
-2.35875,0.993209783428618
-2.358125,0.990531898494096
-2.3575,0.987184542325947
-2.356875,0.9848413930082416
-2.35625,0.9831677149241671
-2.355625,0.981159301223276
-2.355,0.9801550943728308
-2.354375,0.9808245656064609
-2.35375,0.983502450540983
-2.353125,0.9868498067091319
-2.3525,0.9901971628772824
-2.351875,0.9925403121949867
-2.35125,0.9938792546622484
-2.350625,0.9945487258958782
-2.35,0.9952181971295082
-2.349375,0.9955529327463232
-2.34875,0.9955529327463233
-2.348125,0.9948834615126932
-2.3475,0.9925403121949878
-2.346875,0.989192956026836
-2.34625,0.9861803354755018
-2.345625,0.9851761286250567
-2.345,0.9868498067091311
-2.344375,0.9905318984940975
-2.34375,0.9948834615126932
-2.343125,0.9989002889144739
-2.3425,1.001578173848995
-2.341875,1.0029171163162545
-2.34125,1.0029171163162545
-2.340625,1.001578173848995
-2.34,0.999904495764919
-2.339375,0.9975613464472136
-2.33875,0.9952181971295082
-2.338125,0.9928750478118021
-2.3375,0.9912013697277277
-2.336875,0.9912013697277277
-2.33625,0.9922055765781723
-2.335625,0.993209783428618
-2.335,0.993209783428618
-2.334375,0.993879254662248
-2.33375,0.9955529327463225
-2.333125,0.9972266108303985
-2.3325,0.999569760148104
-2.331875,1.0022476450826243
-2.33125,1.0042560587835145
-2.330625,1.0039213231666997
-2.33,1.0019129094658092
-2.329375,0.9995697601481051
-2.32875,0.9968918752135836
-2.328125,0.9942139902790631
-2.3275,0.9908666341109126
-2.326875,0.9878540135595757
-2.32625,0.9848413930082416
-2.325625,0.9818287724569061
-2.325,0.9798203587560167
-2.324375,0.9801550943728308
-2.32375,0.9824982436905362
-2.323125,0.9861803354755018
-2.3225,0.9901971628772841
-2.321875,0.993879254662248
-2.32125,0.9982308176808438
-2.320625,1.0009087026153631
-2.32,1.000239231381733
-2.319375,0.9975613464472136
-2.31875,0.993544519045433
-2.318125,0.990197162877284
-2.3175,0.9875192779427621
-2.316875,0.9848413930082416
-2.31625,0.9821635080737211
-2.315625,0.9808245656064606
-2.315,0.9801550943728308
-2.314375,0.9804898299896458
-2.31375,0.9818287724569056
-2.313125,0.9845066573914265
-2.3125,0.9868498067091319
-2.311875,0.9885234847932072
-2.31125,0.9891929560268373
-2.310625,0.9891929560268373
-2.31,0.9888582204100222
-2.309375,0.989527691643652
-2.30875,0.9905318984940975
-2.308125,0.9905318984940975
-2.3075,0.9898624272604674
-2.306875,0.9881887491764
-2.30625,1.005595001250775
-2.305625,1.0072686793348502
-2.305,1.0099465642693695
-2.304375,1.0126244492038927
-2.30375,1.0159718053720417
-2.303125,1.0173107478393018
-2.3025,1.0156370697552273
-2.301875,1.012289713587076
-2.30125,1.0092770930357406
-2.300625,1.0069339437180351
-2.3,1.0045907944003287
-2.299375,1.0022476450826243
-2.29875,1.0009087026153642
-2.298125,1.0019129094658088
-2.2975,1.0039213231666997
-2.296875,1.006264472484405
-2.29625,1.0076034149516653
-2.295625,1.0086076218021112
-2.295,1.0099465642693706
-2.294375,1.011620242353446
-2.29375,1.0136286560543353
-2.293125,1.0153023341384115
-2.2925,1.0149675985215965
-2.291875,1.011954977970261
-2.29125,1.0082728861852936
-2.290625,1.0045907944003298
-2.29,1.0005739669985492
-2.289375,0.9978960820640299
-2.28875,0.9965571395967688
-2.288125,0.9972266108303985
-2.2875,0.9992350245312889
-2.286875,1.0032518519330678
-2.28625,1.0072686793348502
-2.285625,1.0109507711198158
-2.285,1.011954977970261
-2.284375,1.0112855067366302
-2.28375,1.0099465642693706
-2.283125,1.0076034149516653
-2.2825,1.0045907944003312
-2.281875,1.0019129094658092
-2.28125,0.999569760148104
-2.280625,0.9972266108303985
-2.28,0.9945487258958773
-2.279375,0.9925403121949878
-2.27875,0.9908666341109126
-2.278125,0.9898624272604678
-2.2775,0.9891929560268373
-2.276875,0.987854013559577
-2.27625,0.9888582204100222
-2.275625,0.9912013697277293
-2.275,0.9948834615126932
-2.274375,0.9985655532976588
-2.27375,1.0012434382321782
-2.273125,1.0039213231667008
-2.2725,1.006264472484405
-2.271875,1.006264472484405
-2.27125,1.0035865875498857
-2.270625,1.0005739669985492
-2.27,0.9982308176808438
-2.269375,0.9955529327463233
-2.26875,0.9922055765781711
-2.268125,0.9885234847932072
-2.2675,0.9861803354755018
-2.266875,0.9851761286250571
-2.26625,0.9865150710923168
-2.265625,0.9898624272604674
-2.265,0.9942139902790631
-2.264375,0.9975613464472147
-2.26375,0.999904495764919
-2.263125,1.0005739669985492
-2.2625,1.0002392313817343
-2.261875,0.9989002889144739
-2.26125,0.9972266108303985
-2.260625,0.9955529327463233
-2.26,0.9938792546622475
-2.259375,0.9925403121949878
-2.25875,0.9918708409613577
-2.258125,0.9922055765781727
-2.2575,0.9932097834286188
-2.256875,0.9948834615126932
-2.25625,0.9968918752135836
-2.255625,0.9985655532976581
-2.255,0.9992350245312889
-2.254375,1.000239231381734
-2.25375,1.0015781738489944
-2.253125,1.0029171163162547
-2.2525,1.0032518519330695
-2.251875,1.0012434382321793
-2.25125,0.9982308176808451
-2.250625,0.9962224039799534
-2.25,0.9965571395967685
-2.249375,0.9985655532976588
-2.24875,1.0002392313817348
-2.248125,1.0019129094658092
-2.2475,1.0042560587835148
-2.246875,1.0072686793348489
-2.24625,1.0102812998861856
-2.245625,1.0136286560543362
-2.245,1.0163065409888568
-2.244375,1.0183149546897472
-2.24375,1.0189844259233771
-2.243125,1.0193191615401922
-2.2425,1.0186496903065623
-2.241875,1.0179802190729312
-2.24125,1.0163065409888568
-2.240625,1.0146328629047814
-2.24,1.0132939204375218
-2.239375,1.012289713587076
-2.23875,1.0126244492038912
-2.238125,1.0136286560543362
-2.2375,1.0153023341384126
-2.236875,1.017980219072932
-2.23625,1.0223317820915276
-2.235625,1.0276875519605662
-2.235,1.0320391149791643
-2.234375,1.0347169999136847
-2.23375,1.0347169999136847
-2.233125,1.0333780574464233
-2.2325,1.030700172511904
-2.231875,1.0273528163437535
-2.23125,1.0233359889419746
-2.230625,1.0206581040074525
-2.23,1.0196538971570073
-2.229375,1.0189844259233771
-2.22875,1.0179802190729317
-2.228125,1.0176454834561168
-2.2275,1.018314954689747
-2.226875,1.0196538971570066
-2.22625,1.0230012533251598
-2.225625,1.0273528163437535
-2.225,1.030365436895089
-2.224375,1.0317043793623486
-2.22375,1.0317043793623493
-2.223125,1.030030701278274
-2.2225,1.0276875519605686
-2.221875,1.023670724558786
-2.22125,1.0193191615401922
-2.220625,1.0156370697552266
-2.22,1.013963391671152
-2.219375,1.0142981272879663
-2.21875,1.0159718053720417
-2.218125,1.0169760122224867
-2.2175,1.017310747839302
-2.216875,1.017980219072932
-2.21625,1.0209928396242673
-2.215625,1.0246749314092312
-2.215,1.0283570231941987
-2.214375,1.030700172511904
-2.21375,1.0327085862127943
-2.213125,1.034716999913685
-2.2125,1.0353864711473149
-2.211875,1.0347169999136847
-2.21125,1.03304332182961
-2.210625,1.0303654368950883
-2.21,1.0286917588110136
-2.209375,1.0273528163437535
-2.20875,1.0276875519605684
-2.208125,1.0293612300446437
-2.2075,1.0317043793623493
-2.206875,1.0340475286800546
-2.20625,1.0370601492313916
-2.205625,1.0404075053995405
-2.205,1.0440895971845061
-2.204375,1.0464327465022105
-2.20375,1.0467674821190267
-2.203125,1.0454285396517664
-2.2025,1.0434201259508762
-2.201875,1.0407422410163543
-2.20125,1.0377296204650202
-2.200625,1.0350517355304998
-2.2,1.0330433218296102
-2.199375,1.0317043793623493
-2.19875,1.0310349081287191
-2.198125,1.0317043793623493
-2.1975,1.032708586212795
-2.196875,1.0343822642968696
-2.19625,1.036725413614575
-2.195625,1.039738034165909
-2.195,1.0417464478668013
-2.194375,1.042750654717246
-2.19375,1.042750654717246
-2.193125,1.0417464478668013
-2.1925,1.0394032985490955
-2.191875,1.0363906779977599
-2.19125,1.0340475286800546
-2.190625,1.032708586212794
-2.19,1.0323738505959792
-2.189375,1.0320391149791643
-2.18875,1.0310349081287196
-2.188125,1.030030701278274
-2.1875,1.0283570231941987
-2.186875,1.0273528163437535
-2.18625,1.0280222875773857
-2.185625,1.0323738505959792
-2.185,1.0394032985490955
-2.184375,1.0460980108853934
-2.18375,1.049445367053547
-2.183125,1.049110631436732
-2.1825,1.0460980108853966
-2.181875,1.042081183483614
-2.18125,1.0377296204650202
-2.180625,1.0333780574464244
-2.18,1.0293612300446455
-2.179375,1.0260138738764928
-2.17875,1.025009667026048
-2.178125,1.0263486094933083
-2.1775,1.0300307012782721
-2.176875,1.0343822642968696
-2.17625,1.0380643560818352
-2.175625,1.0404075053995405
-2.175,1.0417464478668008
-2.174375,1.0417464478668008
-2.17375,1.0404075053995405
-2.173125,1.0380643560818363
-2.1725,1.0350517355304998
-2.171875,1.0317043793623493
-2.17125,1.0293612300446437
-2.170625,1.0280222875773837
-2.17,1.0280222875773837
-2.169375,1.0286917588110136
-2.16875,1.0296959656614584
-2.168125,1.0290264944278287
-2.1675,1.0263486094933083
-2.166875,1.024340195792418
-2.16625,1.0243401957924183
-2.165625,1.025009667026048
-2.165,1.0256791382596782
-2.164375,1.026348609493308
-2.16375,1.0270180807269387
-2.163125,1.0276875519605686
-2.1625,1.0273528163437535
-2.161875,1.026013873876494
-2.16125,1.0233359889419729
-2.160625,1.0199886327738223
-2.16,1.0166412766056718
-2.159375,1.014298127287966
-2.15875,1.0136286560543362
-2.158125,1.0136286560543362
-2.1575,1.0149675985215958
-2.156875,1.0169760122224867
-2.15625,1.0196538971570073
-2.155625,1.0226665177083427
-2.155,1.0246749314092336
-2.154375,1.0260138738764932
-2.15375,1.0266833451101234
-2.153125,1.0273528163437533
-2.1525,1.0270180807269385
-2.151875,1.0260138738764932
-2.15125,1.024340195792418
-2.150625,1.022666517708342
-2.15,1.0209928396242673
-2.149375,1.0193191615401922
-2.14875,1.0183149546897474
-2.148125,1.0189844259233776
-2.1475,1.0199886327738223
-2.146875,1.0213275752410824
-2.14625,1.0230012533251571
-2.145625,1.025009667026048
-2.145,1.0266833451101234
-2.144375,1.0276875519605686
-2.14375,1.0276875519605682
-2.143125,1.0266833451101234
-2.1425,1.0256791382596782
-2.141875,1.0243401957924188
-2.14125,1.0223317820915276
-2.140625,1.0206581040074525
-2.14,1.0193191615401922
-2.139375,1.0183149546897463
-2.13875,1.0166412766056718
-2.138125,1.0139633916711512
-2.1375,1.011620242353447
-2.136875,1.0106160355030007
-2.13625,1.012289713587076
-2.135625,1.0163065409888568
-2.135,1.0216623108578997
-2.134375,1.0263486094933083
-2.13375,1.0283570231941987
-2.133125,1.0286917588110134
-2.1325,1.0266833451101216
-2.131875,1.0226665177083427
-2.13125,1.0176454834561168
-2.130625,1.013628656054338
-2.13,1.0112855067366309
-2.129375,1.0096118286525555
-2.12875,1.0096118286525555
-2.128125,1.011285506736632
-2.1275,1.0139633916711512
-2.126875,1.0166412766056718
-2.12625,1.0209928396242653
-2.125625,1.0256791382596782
-2.125,1.030365436895089
-2.124375,1.0337127930632395
-2.12375,1.034716999913684
-2.123125,1.0330433218296093
-2.1225,1.030365436895089
-2.121875,1.0280222875773848
-2.12125,1.0260138738764932
-2.120625,1.024674931409233
-2.12,1.0233359889419729
-2.119375,1.0216623108578973
-2.11875,1.0209928396242673
-2.118125,1.0213275752410824
-2.1175,1.0223317820915272
-2.116875,1.02434019579242
-2.11625,1.0286917588110136
-2.115625,1.0330433218296093
-2.115,1.037729620465018
-2.114375,1.0404075053995405
-2.11375,1.0394032985490955
-2.113125,1.0363906779977599
-2.1125,1.0333780574464233
-2.111875,1.030700172511904
-2.11125,1.0283570231941987
-2.110625,1.0253444026428644
-2.11,1.0219970464747126
-2.109375,1.017980219072932
-2.10875,1.0139633916711512
-2.108125,1.0102812998861845
-2.1075,1.0076034149516653
-2.106875,1.00526026563396
-2.10625,1.0025823806994405
-2.105625,0.999569760148104
-2.105,0.9962224039799534
-2.104375,0.9918708409613577
-2.10375,0.9861803354754984
-2.103125,0.9788161519055706
-2.1025,0.9697782902515641
-2.101875,0.9604056929807469
-2.10125,0.9503636244762864
-2.100625,0.9403215559718393
-2.1,0.9309489587010178
-2.099375,0.9229153038974601
-2.09875,0.9155511203275253
-2.098125,0.9091911436080393
-2.0975,0.9041701093558134
-2.096875,0.9001532819540312
-2.09625,0.8968059257858823
-2.095625,0.8937933052345468
-2.095,0.8907806846832127
-2.094375,0.8867638572814307
-2.09375,0.8817428230292048
-2.093125,0.876721788776979
-2.0925,0.8717007545247509
-2.091875,0.8666797202725274
-2.09125,0.8619934216371166
-2.090625,0.8576418586185229
-2.09,0.8542945024503704
-2.089375,0.8529555599831102
-2.08875,0.8536250312167403
-2.088125,0.8559681805344472
-2.0875,0.8593155367025962
-2.086875,0.8636670997211919
-2.08625,0.8690228695902303
-2.085625,0.8750481106929059
-2.085,0.8797344093283145
-2.084375,0.8840859723469102
-2.08375,0.8901112134495784
-2.083125,0.8971406614026973
-2.0825,0.9051743162062587
-2.081875,0.91320797100982
-2.08125,0.9205721545797537
-2.080625,0.9262626600656071
-2.08,0.9329573724019081
-2.079375,0.9413257628222808
-2.07875,0.9510330957099211
-2.078125,0.962748842298448
-2.0775,0.9754687957374201
-2.076875,0.9891929560268438
-2.07625,1.0032518519330695
-2.075625,1.0166412766056718
-2.075,1.030030701278268
-2.074375,1.0417464478668008
-2.07375,1.0524579876048825
-2.073125,1.0621653204925192
-2.0725,1.0712031821465295
-2.071875,1.079906308183717
-2.07125,1.0886094342209085
-2.070625,1.0976472958749106
-2.07,1.1073546287625562
-2.069375,1.117396697267003
-2.06875,1.1274387657714546
-2.068125,1.137146098659087
-2.0675,1.1461839603130977
-2.066875,1.1552218219671042
-2.06625,1.1642596836211108
-2.065625,1.17195860280786
-2.065,1.178318579527343
-2.064375,1.1830048781627538
-2.06375,1.185682763097273
-2.063125,1.1870217055645345
-2.0625,1.1876911767981646
-2.061875,1.1886953836486096
-2.06125,1.191373268583132
-2.060625,1.1950553603680958
-2.06,1.1987374521530614
-2.059375,1.2007458658539507
-2.05875,1.2000763946203215
-2.058125,1.1977332453026162
-2.0575,1.1953900959849109
-2.056875,1.1937164179008348
-2.05625,1.1923774754335752
-2.055625,1.1910385329663151
-2.055,1.1890301192654256
-2.054375,1.1856827630972717
-2.05375,1.1803269932282334
-2.053125,1.1739670165087472
-2.0525,1.1672723041724493
-2.051875,1.161247063069775
-2.05125,1.1548870863502891
-2.050625,1.1485271096308032
-2.05,1.1425018685281305
-2.049375,1.1388197767431665
-2.04875,1.136141891808646
-2.048125,1.133129271257312
-2.0475,1.1284429726218999
-2.046875,1.122082995902414
-2.04625,1.1140493410988526
-2.045625,1.1060156862952886
-2.045,1.0999904451926203
-2.044375,1.0949694109403945
-2.04375,1.0906178479218007
-2.043125,1.0855968136695728
-2.0425,1.079906308183717
-2.041875,1.073546331464231
-2.04125,1.0671863547447422
-2.040625,1.061161113642074
-2.04,1.0551358725394029
-2.039375,1.0491106314367347
-2.03875,1.0440895971845048
-2.038125,1.0410769766331707
-2.0375,1.0397380341659104
-2.036875,1.0394032985490957
-2.03625,1.0404075053995405
-2.035625,1.042081183483616
-2.035,1.0444243328013212
-2.034375,1.0454285396517664
-2.03375,1.0454285396517664
-2.033125,1.0434201259508762
-2.0325,1.0404075053995419
-2.031875,1.036725413614575
-2.03125,1.0330433218296093
-2.030625,1.030700172511904
-2.03,1.0300307012782741
-2.029375,1.030700172511904
-2.02875,1.0327085862127943
-2.028125,1.0357212067641286
-2.0275,1.0394032985490955
-2.026875,1.043754861567691
-2.02625,1.0481064245862868
-2.025625,1.0521232519880688
-2.025,1.0551358725394029
-2.024375,1.0574790218571084
-2.02375,1.058817964324368
-2.023125,1.059822171174814
-2.0225,1.0601569067916288
-2.021875,1.0591526999411836
-2.02125,1.0578137574739241
-2.020625,1.056140079389848
-2.02,1.0537969300721428
-2.019375,1.0507843095208074
-2.01875,1.047436953352656
-2.018125,1.0457632752685815
-2.0175,1.0464327465022116
-2.016875,1.049110631436731
-2.01625,1.0524579876048825
-2.015625,1.056140079389848
-2.015,1.0601569067916288
-2.014375,1.0641737341934112
-2.01375,1.067855825978375
-2.013125,1.06819056159519
-2.0125,1.0648432054270411
-2.011875,1.0594874355579986
-2.01125,1.0541316656889579
-2.010625,1.0504495739039923
-2.01,1.0471022177358404
-2.009375,1.0440895971845061
-2.00875,1.0417464478668008
-2.008125,1.0400727697827261
-2.0075,1.0387338273154654
-2.006875,1.0387338273154654
-2.00625,1.0390685629322804
-2.005625,1.0397380341659102
-2.005,1.0397380341659104
-2.004375,1.0380643560818352
-2.00375,1.0353864711473149
-2.003125,1.0327085862127932
-2.0025,1.030365436895089
-2.001875,1.0273528163437535
-2.00125,1.0233359889419746
-2.000625,1.018649690306562
-2,1.0136286560543362
-1.999375,1.0092770930357406
-1.99875,1.00659920810122
-1.998125,1.00526026563396
-1.9975,1.005595001250775
-1.996875,1.00659920810122
-1.99625,1.0076034149516653
-1.995625,1.0082728861852954
-1.995,1.0079381505684804
-1.994375,1.0072686793348502
-1.99375,1.006264472484405
-1.993125,1.0042560587835148
-1.9925,1.0015781738489944
-1.991875,0.9978960820640287
-1.99125,0.9945487258958782
-1.990625,0.9918708409613577
-1.99,0.9901971628772824
-1.989375,0.9891929560268373
-1.98875,0.9891929560268373
-1.988125,0.9895276916436523
-1.9875,0.9901971628772824
-1.986875,0.9898624272604674
-1.98625,0.9898624272604674
-1.985625,0.9912013697277277
-1.985,0.993544519045433
-1.984375,0.9955529327463233
-1.98375,0.9952181971295082
-1.983125,0.9922055765781728
-1.9825,0.9881887491763921
-1.981875,0.9855108642418717
-1.98125,0.9835024505409814
-1.980625,0.9798203587560158
-1.98,0.9754687957374201
-1.979375,0.9721214395692696
-1.97875,0.9704477614851943
-1.978125,0.9714519683356394
-1.9775,0.975134060120605
-1.976875,0.9804898299896458
-1.97625,0.9851761286250567
-1.975625,0.9881887491763921
-1.975,0.9895276916436523
-1.974375,0.9898624272604674
-1.97375,0.9888582204100222
-1.973125,0.9861803354755018
-1.9725,0.9831677149241663
-1.971875,0.9814940368400911
-1.97125,0.9804898299896458
-1.970625,0.9798203587560158
-1.97,0.9791508875223857
-1.969375,0.9781466806719404
-1.96875,0.9778119450551255
-1.968125,0.9784814162887555
-1.9675,0.9794856231392007
-1.966875,0.9804898299896458
-1.96625,0.9818287724569061
-1.965625,0.9845066573914265
-1.965,0.987854013559577
-1.964375,0.9918708409613577
-1.96375,0.9948834615126932
-1.963125,0.9972266108303985
-1.9625,0.9989002889144739
-1.961875,0.9985655532976588
-1.96125,0.9965571395967685
-1.960625,0.993544519045433
-1.96,0.9912013697277277
-1.959375,0.9901971628772824
-1.95875,0.9901971628772824
-1.958125,0.9918708409613577
-1.9575,0.9945487258958782
-1.956875,0.9978960820640287
-1.95625,1.0015781738489944
-1.955625,1.0042560587835148
-1.955,1.004925530017145
-1.954375,1.0032518519330695
-1.95375,1.0019129094658092
-1.953125,1.0005739669985492
-1.9525,0.999569760148104
-1.951875,0.9982308176808438
-1.95125,0.9972266108303985
-1.950625,0.9962224039799534
-1.95,0.9952181971295082
-1.949375,0.9945487258958782
-1.94875,0.9945487258958782
-1.948125,0.9945487258958782
-1.9475,0.9955529327463233
-1.946875,0.9965571395967685
-1.94625,0.9992350245312889
-1.945625,1.0019129094658092
-1.945,1.005595001250775
-1.944375,1.0079381505684804
-1.94375,1.0089423574189256
-1.943125,1.0072686793348502
-1.9425,1.0025823806994394
-1.941875,0.9972266108303985
-1.94125,0.9928750478118029
-1.940625,0.9895276916436523
-1.94,0.9868498067091319
-1.939375,0.9845066573914265
-1.93875,0.9831677149241663
-1.938125,0.9828329793073513
-1.9375,0.9838371861577964
-1.936875,0.9858455998586867
-1.93625,0.9898624272604674
-1.935625,0.993879254662248
-1.935,0.9975613464472136
-1.934375,0.9982308176808438
-1.93375,0.9958876683631384
-1.933125,0.9922055765781728
-1.9325,0.9885234847932072
-1.931875,0.9848413930082416
-1.93125,0.9818287724569061
-1.930625,0.9791508875223857
-1.93,0.9778119450551255
-1.929375,0.9774772094383104
-1.92875,0.9778119450551255
-1.928125,0.9784814162887555
-1.9275,0.9791508875223857
-1.926875,0.9791508875223857
-1.92625,0.9794856231392007
-1.925625,0.9798203587560158
-1.925,0.9798203587560158
-1.924375,0.9791508875223857
-1.92375,0.9788161519055706
-1.923125,0.9778119450551255
-1.9225,0.9761382669710501
-1.921875,0.9731256464197147
-1.92125,0.969108819017934
-1.920625,0.9654267272329684
-1.92,0.9620793710648179
-1.919375,0.9590667505134824
-1.91875,0.9580625436630372
-1.918125,0.9597362217471125
-1.9175,0.9644225203825233
-1.916875,0.9711172327188243
-1.91625,0.9778119450551255
-1.915625,0.9831677149241663
-1.915,0.9868498067091319
-1.914375,0.9888582204100222
-1.91375,0.9891929560268373
-1.913125,0.987184542325947
-1.9125,0.9831677149241663
-1.911875,0.9788161519055706
-1.91125,0.9747993245037899
-1.910625,0.9727909108028996
-1.91,0.9724561751860845
-1.909375,0.9734603820365297
-1.90875,0.9758035313542351
-1.908125,0.9791508875223857
-1.9075,0.9835024505409814
-1.906875,0.9888582204100222
-1.90625,0.993209783428618
-1.905625,0.9968918752135836
-1.905,0.9992350245312889
-1.904375,0.999904495764919
-1.90375,0.999904495764919
-1.903125,0.9989002889144739
-1.9025,0.9978960820640287
-1.901875,0.9958876683631384
-1.90125,0.9922055765781728
-1.900625,0.9891929560268373
-1.9,0.9885234847932072
-1.899375,0.9891929560268373
-1.89875,0.9908666341109126
-1.898125,0.9928750478118029
-1.8975,0.9952181971295082
-1.896875,0.9978960820640287
-1.89625,1.0005739669985492
-1.895625,1.0025823806994394
-1.895,1.0029171163162545
-1.894375,1.0022476450826243
-1.89375,1.0012434382321793
-1.893125,1.0005739669985492
-1.8925,0.9992350245312889
-1.891875,0.9968918752135836
-1.89125,0.9942139902790631
-1.890625,0.9915361053445426
-1.89,0.9895276916436523
-1.889375,0.9875192779427621
-1.88875,0.9858455998586867
-1.888125,0.9848413930082416
-1.8875,0.9858455998586867
-1.886875,0.9881887491763921
-1.88625,0.9908666341109126
-1.885625,0.9925403121949878
-1.885,0.9928750478118029
-1.884375,0.9925403121949878
-1.88375,0.9912013697277277
-1.883125,0.9895276916436523
-1.8825,0.9875192779427621
-1.881875,0.9845066573914265
-1.88125,0.9808245656064609
-1.880625,0.9778119450551255
-1.88,0.9761382669710501
-1.879375,0.9747993245037899
-1.87875,0.9727909108028996
-1.878125,0.9714519683356394
-1.8775,0.9714519683356394
-1.876875,0.9734603820365297
-1.87625,0.9771424738214953
-1.875625,0.9814940368400911
-1.875,0.9855108642418717
-1.874375,0.9885234847932072
-1.87375,0.9905318984940975
-1.873125,0.9908666341109126
-1.8725,0.9891929560268373
-1.871875,0.987184542325947
-1.87125,0.9851761286250567
-1.870625,0.9831677149241663
-1.87,0.9824982436905362
-1.869375,0.9838371861577964
-1.86875,0.9868498067091319
-1.868125,0.9905318984940975
-1.8675,0.9942139902790631
-1.866875,0.9978960820640287
-1.86625,0.999904495764919
-1.865625,1.000239231381734
-1.865,0.9989002889144739
-1.864375,0.9978960820640287
-1.86375,0.9982308176808438
-1.863125,0.999904495764919
-1.8625,1.0015781738489944
-1.861875,1.0029171163162545
-1.86125,1.0029171163162545
-1.860625,1.0019129094658092
-1.86,1.0005739669985492
-1.859375,0.999569760148104
-1.85875,0.9985655532976588
-1.858125,0.9975613464472136
-1.8575,0.9965571395967685
-1.856875,0.9962224039799534
-1.85625,0.9968918752135836
-1.855625,0.9992350245312889
-1.855,1.0012434382321793
-1.854375,1.0025823806994394
-1.85375,1.0029171163162545
-1.853125,1.0025823806994394
-1.8525,1.0005739669985492
-1.851875,0.9978960820640287
-1.85125,0.9948834615126932
-1.850625,0.9918708409613577
-1.85,0.9898624272604674
-1.849375,0.9885234847932072
-1.84875,0.9875192779427621
-1.848125,0.9868498067091319
-1.8475,0.987854013559577
-1.846875,0.9901971628772824
-1.84625,0.993879254662248
-1.845625,0.9972266108303985
-1.845,0.9989002889144739
-1.844375,0.999569760148104
-1.84375,0.999569760148104
-1.843125,0.9982308176808438
-1.8425,0.9958876683631384
-1.841875,0.9922055765781728
-1.84125,0.9891929560268373
-1.840625,0.987184542325947
-1.84,0.9858455998586867
-1.839375,0.9855108642418717
-1.83875,0.9861803354755018
-1.838125,0.987854013559577
-1.8375,0.9912013697277277
-1.836875,0.9958876683631384
-1.83625,1.0005739669985492
-1.835625,1.005595001250775
-1.835,1.0102812998861856
-1.834375,1.0136286560543362
-1.83375,1.0146328629047814
-1.833125,1.0136286560543362
-1.8325,1.0106160355030007
-1.831875,1.00659920810122
-1.83125,1.0032518519330695
-1.830625,1.0012434382321793
-1.83,1.0009087026153642
-1.829375,1.0022476450826243
-1.82875,1.004925530017145
-1.828125,1.0086076218021105
-1.8275,1.0129591848207062
-1.826875,1.018649690306562
-1.82625,1.024674931409233
-1.825625,1.0293612300446437
-1.825,1.0313696437455342
-1.824375,1.0313696437455342
-1.82375,1.030700172511904
-1.823125,1.030365436895089
-1.8225,1.030700172511904
-1.821875,1.030700172511904
-1.82125,1.030030701278274
-1.820625,1.0290264944278287
-1.82,1.0283570231941987
-1.819375,1.0273528163437535
-1.81875,1.0270180807269385
-1.818125,1.0283570231941987
-1.8175,1.0317043793623493
-1.816875,1.037394884848205
-1.81625,1.0444243328013212
-1.815625,1.0504495739039923
-1.815,1.0534621944553277
-1.814375,1.054466401305773
-1.81375,1.0537969300721428
-1.813125,1.0517885163712524
-1.8125,1.0481064245862868
-1.811875,1.0447590684181363
-1.81125,1.0430853903340611
-1.810625,1.042415919100431
-1.81,1.0434201259508762
-1.809375,1.0454285396517664
-1.80875,1.0484411602031019
-1.808125,1.0517885163712524
-1.8075,1.054801136922588
-1.806875,1.0578137574739235
-1.80625,1.060826378025259
-1.805625,1.0641737341934094
-1.805,1.067855825978375
-1.804375,1.0708684465297105
-1.80375,1.0722073889969708
-1.803125,1.0718726533801557
-1.8025,1.0705337109128954
-1.801875,1.06819056159519
-1.80125,1.0661821478942999
-1.800625,1.0645084698102245
-1.8,1.0635042629597793
-1.799375,1.0621653204925192
-1.79875,1.061161113642074
-1.798125,1.061495849258889
-1.7975,1.0645084698102245
-1.796875,1.0698642396792655
-1.79625,1.0748852739314911
-1.795625,1.0768936876323816
-1.795,1.0768936876323816
-1.794375,1.0755547451651213
-1.79375,1.0752200095483062
-1.793125,1.0762242163987514
-1.7925,1.0772284232491967
-1.791875,1.0772284232491967
-1.79125,1.0765589520155665
-1.790625,1.0765589520155665
-1.79,1.0775631588660117
-1.789375,1.0778978944828266
-1.78875,1.0778978944828266
-1.788125,1.0785673657164567
-1.7875,1.0792368369500869
-1.786875,1.0809105150341622
-1.78625,1.0832536643518675
-1.785625,1.0852620780527578
-1.785,1.086601020520018
-1.784375,1.085931549286388
-1.78375,1.0842578712023128
-1.783125,1.0829189287350525
-1.7825,1.0809105150341622
-1.781875,1.0785673657164567
-1.78125,1.074550538314676
-1.780625,1.0705337109128954
-1.78,1.06752109036156
-1.779375,1.0658474122774848
-1.77875,1.0655126766606697
-1.778125,1.0668516191279298
-1.7775,1.0695295040624504
-1.776875,1.073211595847416
-1.77625,1.0762242163987514
-1.775625,1.0775631588660117
-1.775,1.0778978944828266
-1.774375,1.0768936876323816
-1.77375,1.074215802697861
-1.773125,1.0708684465297105
-1.7725,1.0665168835111147
-1.771875,1.062500056109334
-1.77125,1.0581484930907386
-1.770625,1.0531274588385127
-1.77,1.049110631436732
-1.769375,1.0464327465022116
-1.76875,1.0447590684181363
-1.768125,1.0450938040349513
-1.7675,1.0477716889694717
-1.766875,1.0514537807544373
-1.76625,1.0541316656889579
-1.765625,1.056140079389848
-1.765,1.0574790218571084
-1.764375,1.0578137574739235
-1.76375,1.0564748150066632
-1.763125,1.0524579876048825
-1.7625,1.0460980108853966
-1.761875,1.0383990916986503
-1.76125,1.0323738505959792
-1.760625,1.0286917588110136
-1.76,1.0273528163437535
-1.759375,1.0290264944278287
-1.75875,1.0320391149791643
-1.758125,1.0350517355304998
-1.7575,1.0383990916986503
-1.756875,1.0414117122499857
-1.75625,1.0444243328013212
-1.755625,1.0464327465022116
-1.755,1.0471022177358418
-1.754375,1.0457632752685815
-1.75375,1.0434201259508762
-1.753125,1.0404075053995405
-1.7525,1.037394884848205
-1.751875,1.0343822642968696
-1.75125,1.0310349081287191
-1.750625,1.0283570231941987
-1.75,1.0263486094933083
-1.749375,1.024005460175603
-1.74875,1.0216623108578975
-1.748125,1.0209928396242673
-1.7475,1.0226665177083427
-1.746875,1.0256791382596782
-1.74625,1.0280222875773837
-1.745625,1.0290264944278287
-1.745,1.0286917588110136
-1.744375,1.0276875519605686
-1.74375,1.0260138738764932
-1.743125,1.024005460175603
-1.7425,1.0209928396242673
-1.741875,1.0173107478393018
-1.74125,1.0129591848207062
-1.740625,1.0086076218021105
-1.74,1.005595001250775
-1.739375,1.0039213231666997
-1.73875,1.0032518519330695
-1.738125,1.0035865875498846
-1.7375,1.004925530017145
-1.736875,1.0072686793348502
-1.73625,1.0106160355030007
-1.735625,1.0146328629047814
-1.735,1.0176454834561168
-1.734375,1.0199886327738223
-1.73375,1.0206581040074525
-1.733125,1.0196538971570073
-1.7325,1.017980219072932
-1.731875,1.0173107478393018
-1.73125,1.0176454834561168
-1.730625,1.0173107478393018
-1.73,1.0163065409888568
-1.729375,1.0159718053720417
-1.72875,1.0163065409888568
-1.728125,1.017980219072932
-1.7275,1.0209928396242673
-1.726875,1.025344402642863
-1.72625,1.030030701278274
-1.725625,1.0350517355304998
-1.725,1.0387338273154654
-1.724375,1.0404075053995405
-1.72375,1.0404075053995405
-1.723125,1.0390685629322804
-1.7225,1.0360559423809448
-1.721875,1.0327085862127943
-1.72125,1.0293612300446437
-1.720625,1.0273528163437535
-1.72,1.0260138738764932
-1.719375,1.024674931409233
-1.71875,1.024340195792418
-1.718125,1.025009667026048
-1.7175,1.0270180807269385
-1.716875,1.0293612300446437
-1.71625,1.0320391149791643
-1.715625,1.0340475286800546
-1.715,1.0350517355304998
-1.714375,1.0340475286800546
-1.71375,1.0317043793623493
-1.713125,1.0283570231941987
-1.7125,1.025344402642863
-1.711875,1.0226665177083427
-1.71125,1.0206581040074525
-1.710625,1.0193191615401922
-1.71,1.018314954689747
-1.709375,1.0173107478393018
-1.70875,1.0173107478393018
-1.708125,1.0176454834561168
-1.7075,1.0176454834561168
-1.706875,1.0169760122224867
-1.70625,1.0159718053720417
-1.705625,1.0153023341384115
-1.705,1.0156370697552266
-1.704375,1.0159718053720417
-1.70375,1.0166412766056718
-1.703125,1.0159718053720417
-1.7025,1.0146328629047814
-1.701875,1.012289713587076
-1.70125,1.0089423574189256
-1.700625,1.00526026563396
-1.7,1.0019129094658092
-1.699375,1.000239231381734
-1.69875,0.999904495764919
-1.698125,1.000239231381734
-1.6975,1.0015781738489944
-1.696875,1.0035865875498846
-1.69625,1.006264472484405
-1.695625,1.0082728861852954
-1.695,1.0092770930357406
-1.694375,1.0096118286525555
-1.69375,1.0089423574189256
-1.693125,1.0072686793348502
-1.6925,1.0039213231666997
-1.691875,0.999904495764919
-1.69125,0.9958876683631384
-1.690625,0.993209783428618
-1.69,0.9905318984940975
-1.689375,0.9885234847932072
-1.68875,0.9868498067091319
-1.688125,0.9875192779427621
-1.6875,0.9898624272604674
-1.686875,0.993209783428618
-1.68625,0.9952181971295082
-1.685625,0.9958876683631384
-1.685,0.9962224039799534
-1.684375,0.9972266108303985
-1.68375,0.9975613464472136
-1.683125,0.9968918752135836
-1.6825,0.993544519045433
-1.681875,0.9888582204100222
-1.68125,0.9835024505409814
-1.680625,0.9794856231392007
-1.68,0.9778119450551255
-1.679375,0.9781466806719404
-1.67875,0.9788161519055706
-1.678125,0.9794856231392007
-1.6775,0.981159301223276
-1.676875,0.9848413930082416
-1.67625,0.9891929560268373
-1.675625,0.9928750478118029
-1.675,0.9948834615126932
-1.674375,0.9955529327463233
-1.67375,0.9952181971295082
-1.673125,0.9945487258958782
-1.6725,0.993209783428618
-1.671875,0.9905318984940975
-1.67125,0.987854013559577
-1.670625,0.9865150710923168
-1.67,0.9875192779427621
-1.669375,0.9901971628772824
-1.66875,0.993879254662248
-1.668125,0.9972266108303985
-1.6675,1.000239231381734
-1.666875,1.0035865875498846
-1.66625,1.00659920810122
-1.665625,1.0076034149516653
-1.665,1.0082728861852954
-1.664375,1.0092770930357406
-1.66375,1.0106160355030007
-1.663125,1.011620242353446
-1.6625,1.012289713587076
-1.661875,1.011620242353446
-1.66125,1.0106160355030007
-1.660625,1.0106160355030007
-1.66,1.011954977970261
-1.659375,1.0129591848207062
-1.65875,1.0136286560543362
-1.658125,1.0149675985215965
-1.6575,1.0176454834561168
-1.656875,1.0209928396242673
-1.65625,1.024674931409233
-1.655625,1.0280222875773837
-1.655,1.0293612300446437
-1.654375,1.0290264944278287
-1.65375,1.0266833451101234
-1.653125,1.024005460175603
-1.6525,1.0216623108578975
-1.651875,1.0213275752410824
-1.65125,1.0213275752410824
-1.650625,1.0206581040074525
-1.65,1.0196538971570073
-1.649375,1.018314954689747
-1.64875,1.018649690306562
-1.648125,1.0209928396242673
-1.6475,1.024674931409233
-1.646875,1.0276875519605686
-1.64625,1.030030701278274
-1.645625,1.030365436895089
-1.645,1.0296959656614588
-1.644375,1.0276875519605686
-1.64375,1.0256791382596782
-1.643125,1.0226665177083427
-1.6425,1.018314954689747
-1.641875,1.0139633916711512
-1.64125,1.0099465642693706
-1.640625,1.0069339437180351
-1.64,1.004925530017145
-1.639375,1.00526026563396
-1.63875,1.0069339437180351
-1.638125,1.0099465642693706
-1.6375,1.0129591848207062
-1.636875,1.0156370697552266
-1.63625,1.0173107478393018
-1.635625,1.0189844259233771
-1.635,1.0199886327738223
-1.634375,1.0203233683906374
-1.63375,1.0196538971570073
-1.633125,1.017980219072932
-1.6325,1.0149675985215965
-1.631875,1.012289713587076
-1.63125,1.0096118286525555
-1.630625,1.0072686793348502
-1.63,1.004925530017145
-1.629375,1.0032518519330695
-1.62875,1.0029171163162545
-1.628125,1.00526026563396
-1.6275,1.0099465642693706
-1.626875,1.0142981272879663
-1.62625,1.0176454834561168
-1.625625,1.0196538971570073
-1.625,1.0203233683906374
-1.624375,1.0206581040074525
-1.62375,1.0206581040074525
-1.623125,1.0196538971570073
-1.6225,1.017980219072932
-1.621875,1.0153023341384115
-1.62125,1.012289713587076
-1.620625,1.0086076218021105
-1.62,1.00592973686759
-1.619375,1.005595001250775
-1.61875,1.0072686793348502
-1.618125,1.0099465642693706
-1.6175,1.013293920437521
-1.616875,1.0176454834561168
-1.61625,1.0216623108578975
-1.615625,1.023670724558788
-1.615,1.023670724558788
-1.614375,1.0223317820915276
-1.61375,1.0213275752410824
-1.613125,1.0199886327738223
-1.6125,1.018314954689747
-1.611875,1.0156370697552266
-1.61125,1.013293920437521
-1.610625,1.0112855067366309
-1.61,1.0102812998861856
-1.609375,1.0102812998861856
-1.60875,1.0112855067366309
-1.608125,1.013293920437521
-1.6075,1.0156370697552266
-1.606875,1.018649690306562
-1.60625,1.0209928396242673
-1.605625,1.0219970464747126
-1.605,1.0219970464747126
-1.604375,1.0213275752410824
-1.60375,1.0193191615401922
-1.603125,1.0159718053720417
-1.6025,1.011620242353446
-1.601875,1.0082728861852954
-1.60125,1.005595001250775
-1.600625,1.0035865875498846
-1.6,1.0025823806994394
-1.599375,1.0022476450826243
-1.59875,1.0035865875498846
-1.598125,1.005595001250775
-1.5975,1.0086076218021105
-1.596875,1.011954977970261
-1.59625,1.0156370697552266
-1.595625,1.0189844259233771
-1.595,1.0213275752410824
-1.594375,1.0230012533251578
-1.59375,1.0230012533251578
-1.593125,1.0219970464747126
-1.5925,1.0193191615401922
-1.591875,1.0136286560543362
-1.59125,1.0072686793348502
-1.590625,1.0025823806994394
-1.59,0.999904495764919
-1.589375,0.999904495764919
-1.58875,1.0015781738489944
-1.588125,1.005595001250775
-1.5875,1.0102812998861856
-1.586875,1.0156370697552266
-1.58625,1.0216623108578975
-1.585625,1.0256791382596782
-1.585,1.0263486094933083
-1.584375,1.024340195792418
-1.58375,1.0213275752410824
-1.583125,1.0173107478393018
-1.5825,1.013293920437521
-1.581875,1.0096118286525555
-1.58125,1.00592973686759
-1.580625,1.0035865875498846
-1.58,1.0015781738489944
-1.579375,1.000239231381734
-1.57875,0.999904495764919
-1.578125,1.0005739669985492
-1.5775,1.0022476450826243
-1.576875,1.004925530017145
-1.57625,1.0079381505684804
-1.575625,1.0109507711198158
-1.575,1.0142981272879663
-1.574375,1.0159718053720417
-1.57375,1.0156370697552266
-1.573125,1.0136286560543362
-1.5725,1.0109507711198158
-1.571875,1.0082728861852954
-1.57125,1.00526026563396
-1.570625,1.0025823806994394
-1.57,1.0012434382321793
-1.569375,1.0009087026153642
-1.56875,1.0015781738489944
-1.568125,1.0029171163162545
-1.5675,1.00526026563396
-1.566875,1.0082728861852954
-1.56625,1.012289713587076
-1.565625,1.0149675985215965
-1.565,1.0153023341384115
-1.564375,1.0142981272879663
-1.56375,1.0126244492038912
-1.563125,1.0099465642693706
-1.5625,1.0072686793348502
-1.561875,1.0045907944003298
-1.56125,1.0019129094658092
-1.560625,0.999904495764919
-1.56,0.9989002889144739
-1.559375,0.9989002889144739
-1.55875,0.999569760148104
-1.558125,1.0005739669985492
-1.5575,1.0025823806994394
-1.556875,1.005595001250775
-1.55625,1.0089423574189256
-1.555625,1.0112855067366309
-1.555,1.012289713587076
-1.554375,1.0112855067366309
-1.55375,1.0082728861852954
-1.553125,1.0039213231666997
-1.5525,0.9992350245312889
-1.551875,0.9958876683631384
-1.55125,0.9942139902790631
-1.550625,0.993209783428618
-1.55,0.9928750478118029
-1.549375,0.993879254662248
-1.54875,0.9955529327463233
-1.548125,0.9978960820640287
-1.5475,0.9992350245312889
-1.546875,1.0005739669985492
-1.54625,1.0019129094658092
-1.545625,1.0032518519330695
-1.545,1.0042560587835148
-1.544375,1.005595001250775
-1.54375,1.00659920810122
-1.543125,1.0069339437180351
-1.5425,1.0035865875498846
-1.541875,0.9985655532976588
-1.54125,0.993209783428618
-1.540625,0.9898624272604674
-1.54,0.9895276916436523
-1.539375,0.9912013697277277
-1.53875,0.9942139902790631
-1.538125,0.9972266108303985
-1.5375,0.999569760148104
-1.536875,1.0015781738489944
-1.53625,1.0035865875498846
-1.535625,1.005595001250775
-1.535,1.00659920810122
-1.534375,1.00526026563396
-1.53375,1.0019129094658092
-1.533125,0.9978960820640287
-1.5325,0.9945487258958782
-1.531875,0.9918708409613577
-1.53125,0.9901971628772824
-1.530625,0.9898624272604674
-1.53,0.9915361053445426
-1.529375,0.993879254662248
-1.52875,0.9948834615126932
-1.528125,0.9952181971295082
-1.5275,0.9958876683631384
-1.526875,0.9978960820640287
-1.52625,0.999904495764919
-1.525625,1.0005739669985492
-1.525,0.999904495764919
-1.524375,0.9975613464472136
-1.52375,0.9952181971295082
-1.523125,0.993209783428618
-1.5225,0.9891929560268373
-1.521875,0.9841719217746114
-1.52125,0.9794856231392007
-1.520625,0.9761382669710501
-1.52,0.9747993245037899
-1.519375,0.9761382669710501
-1.51875,0.9788161519055706
-1.518125,0.9814940368400911
-1.5175,0.9845066573914265
-1.516875,0.987184542325947
-1.51625,0.9888582204100222
-1.515625,0.9895276916436523
-1.515,0.9901971628772824
-1.514375,0.9898624272604674
-1.51375,0.9895276916436523
-1.513125,0.9885234847932072
-1.5125,0.9865150710923168
-1.511875,0.9841719217746114
-1.51125,0.9818287724569061
-1.510625,0.9804898299896458
-1.51,0.9808245656064609
-1.509375,0.9828329793073513
-1.50875,0.9858455998586867
-1.508125,0.9895276916436523
-1.5075,0.9928750478118029
-1.506875,0.9945487258958782
-1.50625,0.9955529327463233
-1.505625,0.9962224039799534
-1.505,0.9975613464472136
-1.504375,0.9989002889144739
-1.50375,0.9989002889144739
-1.503125,0.9978960820640287
-1.5025,0.9965571395967685
-1.501875,0.9945487258958782
-1.50125,0.9922055765781728
-1.500625,0.9901971628772824
-1.5,0.9885234847932072
-1.499375,0.9881887491763921
-1.49875,0.9888582204100222
-1.498125,0.9898624272604674
-1.4975,0.9918708409613577
-1.496875,0.9958876683631384
-1.49625,0.9989002889144739
-1.495625,1.0019129094658092
-1.495,1.0042560587835148
-1.494375,1.00659920810122
-1.49375,1.0079381505684804
-1.493125,1.0082728861852954
-1.4925,1.005595001250775
-1.491875,0.999904495764919
-1.49125,0.993209783428618
-1.490625,0.9885234847932072
-1.49,0.9865150710923168
-1.489375,0.9875192779427621
-1.48875,0.9898624272604674
-1.488125,0.9928750478118029
-1.4875,0.9948834615126932
-1.486875,0.9948834615126932
-1.48625,0.9925403121949878
-1.485625,0.9905318984940975
-1.485,0.9901971628772824
-1.484375,0.9925403121949878
-1.48375,0.9952181971295082
-1.483125,0.9962224039799534
-1.4825,0.9945487258958782
-1.481875,0.9908666341109126
-1.48125,0.987184542325947
-1.480625,0.9845066573914265
-1.48,0.9835024505409814
-1.479375,0.9841719217746114
-1.47875,0.9858455998586867
-1.478125,0.9881887491763921
-1.4775,0.9895276916436523
-1.476875,0.9912013697277277
-1.47625,0.993879254662248
-1.475625,0.9972266108303985
-1.475,0.999904495764919
-1.474375,1.0005739669985492
-1.47375,0.9992350245312889
-1.473125,0.9972266108303985
-1.4725,0.9945487258958782
-1.471875,0.9925403121949878
-1.47125,0.9915361053445426
-1.470625,0.9908666341109126
-1.47,0.9908666341109126
-1.469375,0.9912013697277277
-1.46875,0.993209783428618
-1.468125,0.9955529327463233
-1.4675,0.9978960820640287
-1.466875,1.0019129094658092
-1.46625,1.00592973686759
-1.465625,1.0086076218021105
-1.465,1.0099465642693706
-1.464375,1.0106160355030007
-1.46375,1.0102812998861856
-1.463125,1.0076034149516653
-1.4625,1.0029171163162545
-1.461875,0.9978960820640287
-1.46125,0.9942139902790631
-1.460625,0.9912013697277277
-1.46,0.9891929560268373
-1.459375,0.987854013559577
-1.45875,0.987854013559577
-1.458125,0.9898624272604674
-1.4575,0.9922055765781728
-1.456875,0.9948834615126932
-1.45625,0.9975613464472136
-1.455625,1.000239231381734
-1.455,1.0025823806994394
-1.454375,1.0035865875498846
-1.45375,1.0025823806994394
-1.453125,0.999904495764919
-1.4525,0.9965571395967685
-1.451875,0.9942139902790631
-1.45125,0.993209783428618
-1.450625,0.9928750478118029
-1.45,0.993209783428618
-1.449375,0.9945487258958782
-1.44875,0.9968918752135836
-1.448125,0.9989002889144739
-1.4475,1.0009087026153642
-1.446875,1.0029171163162545
-1.44625,1.0045907944003298
-1.445625,1.005595001250775
-1.445,1.00659920810122
-1.444375,1.0076034149516653
-1.44375,1.0086076218021105
-1.443125,1.0089423574189256
-1.4425,1.0076034149516653
-1.441875,1.00526026563396
-1.44125,1.0015781738489944
-1.440625,0.9978960820640287
-1.44,0.9955529327463233
-1.439375,0.9945487258958782
-1.43875,0.9955529327463233
-1.438125,0.9975613464472136
-1.4375,0.9989002889144739
-1.436875,0.999569760148104
-1.43625,1.0009087026153642
-1.435625,1.0022476450826243
-1.435,1.0035865875498846
-1.434375,1.0035865875498846
-1.43375,1.0012434382321793
-1.433125,0.9972266108303985
-1.4325,0.993209783428618
-1.431875,0.9895276916436523
-1.43125,0.987184542325947
-1.430625,0.9855108642418717
-1.43,0.9851761286250567
-1.429375,0.9848413930082416
-1.42875,0.9841719217746114
-1.428125,0.9845066573914265
-1.4275,0.9848413930082416
-1.426875,0.9851761286250567
-1.42625,0.9858455998586867
-1.425625,0.9858455998586867
-1.425,0.9855108642418717
-1.424375,0.9848413930082416
-1.42375,0.9845066573914265
-1.423125,0.9835024505409814
-1.4225,0.9824982436905362
-1.421875,0.981159301223276
-1.42125,0.9794856231392007
-1.420625,0.9781466806719404
-1.42,0.9774772094383104
-1.419375,0.9771424738214953
-1.41875,0.9774772094383104
-1.418125,0.9784814162887555
-1.4175,0.9808245656064609
-1.416875,0.9841719217746114
-1.41625,0.9875192779427621
-1.415625,0.9901971628772824
-1.415,0.9915361053445426
-1.414375,0.9925403121949878
-1.41375,0.9925403121949878
-1.413125,0.9912013697277277
-1.4125,0.9901971628772824
-1.411875,0.9895276916436523
-1.41125,0.9885234847932072
-1.410625,0.9875192779427621
-1.41,0.987854013559577
-1.409375,0.9885234847932072
-1.40875,0.9895276916436523
-1.408125,0.9912013697277277
-1.4075,0.9942139902790631
-1.406875,0.9985655532976588
-1.40625,1.0019129094658092
-1.405625,1.0039213231666997
-1.405,1.0042560587835148
-1.404375,1.0039213231666997
-1.40375,1.0025823806994394
-1.403125,0.999904495764919
-1.4025,0.9962224039799534
-1.401875,0.993879254662248
-1.40125,0.9948834615126932
-1.400625,0.9965571395967685
-1.4,0.9975613464472136
-1.399375,0.9968918752135836
-1.39875,0.9955529327463233
-1.398125,0.9958876683631384
-1.3975,0.9985655532976588
-1.396875,1.0019129094658092
-1.39625,1.004925530017145
-1.395625,1.0076034149516653
-1.395,1.0092770930357406
-1.394375,1.0102812998861856
-1.39375,1.0096118286525555
-1.393125,1.0086076218021105
-1.3925,1.0069339437180351
-1.391875,1.005595001250775
-1.39125,1.004925530017145
-1.390625,1.00526026563396
-1.39,1.00659920810122
-1.389375,1.0082728861852954
-1.38875,1.0092770930357406
-1.388125,1.0102812998861856
-1.3875,1.0112855067366309
-1.386875,1.0129591848207062
-1.38625,1.0149675985215965
-1.385625,1.0166412766056718
-1.385,1.0176454834561168
-1.384375,1.018314954689747
-1.38375,1.018649690306562
-1.383125,1.018649690306562
-1.3825,1.0176454834561168
-1.381875,1.0153023341384115
-1.38125,1.0136286560543362
-1.380625,1.012289713587076
-1.38,1.011620242353446
-1.379375,1.0112855067366309
-1.37875,1.0112855067366309
-1.378125,1.011954977970261
-1.3775,1.013293920437521
-1.376875,1.0153023341384115
-1.37625,1.017980219072932
-1.375625,1.0206581040074525
-1.375,1.0233359889419729
-1.374375,1.025344402642863
-1.37375,1.0263486094933083
-1.373125,1.025344402642863
-1.3725,1.0233359889419729
-1.371875,1.0209928396242673
-1.37125,1.0193191615401922
-1.370625,1.017980219072932
-1.37,1.0173107478393018
-1.369375,1.0159718053720417
-1.36875,1.0149675985215965
-1.368125,1.0142981272879663
-1.3675,1.0163065409888568
-1.366875,1.0199886327738223
-1.36625,1.0233359889419729
-1.365625,1.0256791382596782
-1.365,1.0270180807269385
-1.364375,1.0283570231941987
-1.36375,1.0280222875773837
-1.363125,1.0256791382596782
-1.3625,1.0216623108578975
-1.361875,1.0163065409888568
-1.36125,1.0102812998861856
-1.360625,1.00526026563396
-1.36,1.0025823806994394
-1.359375,1.0032518519330695
-1.35875,1.00592973686759
-1.358125,1.0089423574189256
-1.3575,1.012289713587076
-1.356875,1.0156370697552266
-1.35625,1.0169760122224867
-1.355625,1.0166412766056718
-1.355,1.0153023341384115
-1.354375,1.0139633916711512
-1.35375,1.0126244492038912
-1.353125,1.0112855067366309
-1.3525,1.0089423574189256
-1.351875,1.005595001250775
-1.35125,1.0022476450826243
-1.350625,1.000239231381734
-1.35,0.9989002889144739
-1.349375,0.9989002889144739
-1.34875,1.000239231381734
-1.348125,1.0029171163162545
-1.3475,1.00592973686759
-1.346875,1.0089423574189256
-1.34625,1.0109507711198158
-1.345625,1.012289713587076
-1.345,1.011620242353446
-1.344375,1.0102812998861856
-1.34375,1.0086076218021105
-1.343125,1.0072686793348502
-1.3425,1.006264472484405
-1.341875,1.004925530017145
-1.34125,1.0012434382321793
-1.340625,0.9965571395967685
-1.34,0.9925403121949878
-1.339375,0.9912013697277277
-1.33875,0.9922055765781728
-1.338125,0.9955529327463233
-1.3375,0.9992350245312889
-1.336875,1.0015781738489944
-1.33625,1.0039213231666997
-1.335625,1.006264472484405
-1.335,1.0079381505684804
-1.334375,1.0082728861852954
-1.33375,1.0069339437180351
-1.333125,1.0045907944003298
-1.3325,1.0029171163162545
-1.331875,1.0005739669985492
-1.33125,0.9985655532976588
-1.330625,0.9965571395967685
-1.33,0.9955529327463233
-1.329375,0.9958876683631384
-1.32875,0.9972266108303985
-1.328125,0.9985655532976588
-1.3275,1.000239231381734
-1.326875,1.0025823806994394
-1.32625,1.005595001250775
-1.325625,1.0079381505684804
-1.325,1.0092770930357406
-1.324375,1.0092770930357406
-1.32375,1.0082728861852954
-1.323125,1.00592973686759
-1.3225,1.0032518519330695
-1.321875,1.0009087026153642
-1.32125,0.999569760148104
-1.320625,0.9985655532976588
-1.32,0.9978960820640287
-1.319375,0.9978960820640287
-1.31875,0.9992350245312889
-1.318125,1.0019129094658092
-1.3175,1.004925530017145
-1.316875,1.00659920810122
-1.31625,1.0072686793348502
-1.315625,1.006264472484405
-1.315,1.0042560587835148
-1.314375,1.0025823806994394
-1.31375,1.0015781738489944
-1.313125,0.999569760148104
-1.3125,0.9975613464472136
-1.311875,0.9945487258958782
-1.31125,0.9912013697277277
-1.310625,0.9881887491763921
-1.31,0.9861803354755018
-1.309375,0.9851761286250567
-1.30875,0.9855108642418717
-1.308125,0.987184542325947
-1.3075,0.9895276916436523
-1.306875,0.9912013697277277
-1.30625,0.9928750478118029
-1.305625,0.9942139902790631
-1.305,0.9952181971295082
-1.304375,0.9952181971295082
-1.30375,0.9942139902790631
-1.303125,0.9915361053445426
-1.3025,0.987184542325947
-1.301875,0.9831677149241663
-1.30125,0.9808245656064609
-1.300625,0.9801550943728308
-1.3,0.9801550943728308
-1.299375,0.9804898299896458
-1.29875,0.9818287724569061
-1.298125,0.9841719217746114
-1.2975,0.987184542325947
-1.296875,0.9905318984940975
-1.29625,0.993544519045433
-1.295625,0.9955529327463233
-1.295,0.9965571395967685
-1.294375,0.9965571395967685
-1.29375,0.9958876683631384
-1.293125,0.9942139902790631
-1.2925,0.9922055765781728
-1.291875,0.9905318984940975
-1.29125,0.9891929560268373
-1.290625,0.9881887491763921
-1.29,0.9881887491763921
-1.289375,0.9888582204100222
-1.28875,0.9905318984940975
-1.288125,0.9918708409613577
-1.2875,0.9928750478118029
-1.286875,0.9942139902790631
-1.28625,0.9962224039799534
-1.285625,0.9982308176808438
-1.285,1.000239231381734
-1.284375,1.0022476450826243
-1.28375,1.0039213231666997
-1.283125,1.0039213231666997
-1.2825,1.0022476450826243
-1.281875,0.9989002889144739
-1.28125,0.993879254662248
-1.280625,0.9881887491763921
-1.28,0.9855108642418717
-1.279375,0.9855108642418717
-1.27875,0.9875192779427621
-1.278125,0.9901971628772824
-1.2775,0.9942139902790622
-1.276875,0.9989002889144739
-1.27625,1.0042560587835136
-1.275625,1.0082728861852954
-1.275,1.0102812998861856
-1.274375,1.0106160355030007
-1.27375,1.0092770930357406
-1.273125,1.006264472484405
-1.2725,1.0035865875498846
-1.271875,1.0015781738489948
-1.27125,1.0012434382321793
-1.270625,1.0015781738489946
-1.27,1.0029171163162545
-1.269375,1.0052602656339606
-1.26875,1.0086076218021105
-1.268125,1.011620242353446
-1.2675,1.0146328629047814
-1.266875,1.0173107478393018
-1.26625,1.0216623108578966
-1.265625,1.0263486094933083
-1.265,1.0290264944278287
-1.264375,1.0286917588110136
-1.26375,1.0266833451101234
-1.263125,1.024674931409233
-1.2625,1.0223317820915276
-1.261875,1.019653897157008
-1.26125,1.0176454834561168
-1.260625,1.016976012222487
-1.26,1.0176454834561168
-1.259375,1.0189844259233776
-1.25875,1.0213275752410824
-1.258125,1.025009667026048
-1.2575,1.0286917588110136
-1.256875,1.0327085862127943
-1.25625,1.0353864711473142
-1.255625,1.037394884848205
-1.255,1.0387338273154656
-1.254375,1.0394032985490955
-1.25375,1.0387338273154652
-1.253125,1.0377296204650202
-1.2525,1.0360559423809448
-1.251875,1.0350517355304998
-1.25125,1.0343822642968696
-1.250625,1.0340475286800546
-1.25,1.0343822642968696
-1.249375,1.0353864711473153
-1.24875,1.037394884848205
-1.248125,1.0397380341659104
-1.2475,1.042415919100431
-1.246875,1.0450938040349513
-1.24625,1.047771688969471
-1.245625,1.0497801026703621
-1.245,1.0507843095208071
-1.244375,1.0504495739039923
-1.24375,1.0491106314367316
-1.243125,1.0474369533526566
-1.2425,1.0454285396517664
-1.241875,1.042415919100431
-1.24125,1.0397380341659104
-1.240625,1.0377296204650206
-1.24,1.0363906779977599
-1.239375,1.036055942380945
-1.23875,1.037394884848205
-1.238125,1.039738034165911
-1.2375,1.0430853903340611
-1.236875,1.0471022177358418
-1.23625,1.0507843095208074
-1.235625,1.0521232519880674
-1.235,1.0517885163712524
-1.234375,1.0484411602031019
-1.23375,1.044089597184505
-1.233125,1.0394032985490955
-1.2325,1.0360559423809448
-1.231875,1.0337127930632395
-1.23125,1.0323738505959792
-1.230625,1.0313696437455344
-1.23,1.0320391149791643
-1.229375,1.033712793063239
-1.22875,1.03572120676413
-1.228125,1.0373948848482053
-1.2275,1.0383990916986503
-1.226875,1.0383990916986503
-1.22625,1.0377296204650202
-1.225625,1.036725413614575
-1.225,1.036055942380945
-1.224375,1.0340475286800546
-1.22375,1.0310349081287182
-1.223125,1.0270180807269385
-1.2225,1.0243401957924176
-1.221875,1.0226665177083427
-1.22125,1.0213275752410824
-1.220625,1.0209928396242673
-1.22,1.0219970464747126
-1.219375,1.024005460175603
-1.21875,1.0263486094933083
-1.218125,1.0283570231941987
-1.2175,1.0313696437455342
-1.216875,1.0343822642968696
-1.21625,1.0363906779977599
-1.215625,1.037394884848205
-1.215,1.0363906779977599
-1.214375,1.0337127930632395
-1.21375,1.030365436895089
-1.213125,1.0286917588110136
-1.2125,1.0283570231941987
-1.211875,1.0293612300446437
-1.21125,1.0296959656614588
-1.210625,1.0296959656614588
-1.21,1.030030701278274
-1.209375,1.0317043793623493
-1.20875,1.0330433218296093
-1.208125,1.0350517355304998
-1.2075,1.0377296204650202
-1.206875,1.0414117122499857
-1.20625,1.0447590684181363
-1.205625,1.0464327465022116
-1.205,1.0450938040349513
-1.204375,1.042750654717246
-1.20375,1.0397380341659104
-1.203125,1.036725413614575
-1.2025,1.0340475286800546
-1.201875,1.0323738505959792
-1.20125,1.0317043793623493
-1.200625,1.0320391149791643
-1.2,1.0337127930632395
-1.199375,1.0350517355304998
-1.19875,1.0350517355304998
-1.198125,1.0347169999136847
-1.1975,1.0340475286800546
-1.196875,1.0340475286800546
-1.19625,1.0333780574464244
-1.195625,1.0323738505959792
-1.195,1.0317043793623493
-1.194375,1.030365436895089
-1.19375,1.0280222875773837
-1.193125,1.025009667026048
-1.1925,1.0226665177083427
-1.191875,1.0209928396242673
-1.19125,1.0206581040074525
-1.190625,1.0206581040074525
-1.19,1.0193191615401922
-1.189375,1.0176454834561168
-1.18875,1.0159718053720417
-1.188125,1.0149675985215965
-1.1875,1.0149675985215965
-1.186875,1.0156370697552266
-1.18625,1.0163065409888568
-1.185625,1.0163065409888568
-1.185,1.0159718053720417
-1.184375,1.0149675985215965
-1.18375,1.013293920437521
-1.183125,1.0099465642693706
-1.1825,1.006264472484405
-1.181875,1.0032518519330695
-1.18125,1.0009087026153642
-1.180625,0.9985655532976588
-1.18,0.9968918752135836
-1.179375,0.9978960820640287
-1.17875,1.0009087026153642
-1.178125,1.0042560587835148
-1.1775,1.0079381505684804
-1.176875,1.0102812998861856
-1.17625,1.011620242353446
-1.175625,1.0126244492038912
-1.175,1.0126244492038912
-1.174375,1.0109507711198158
-1.17375,1.0076034149516653
-1.173125,1.0035865875498846
-1.1725,0.9992350245312889
-1.171875,0.9952181971295082
-1.17125,0.993209783428618
-1.170625,0.993879254662248
-1.17,0.9962224039799534
-1.169375,0.999904495764919
-1.16875,1.0032518519330695
-1.168125,1.00592973686759
-1.1675,1.0076034149516653
-1.166875,1.0086076218021105
-1.16625,1.0089423574189256
-1.165625,1.0089423574189256
-1.165,1.0082728861852954
-1.164375,1.0069339437180351
-1.16375,1.0039213231666997
-1.163125,1.000239231381734
-1.1625,0.9972266108303985
-1.161875,0.9942139902790631
-1.16125,0.9912013697277277
-1.160625,0.9891929560268373
-1.16,0.9868498067091319
-1.159375,0.9858455998586867
-1.15875,0.9858455998586867
-1.158125,0.987854013559577
-1.1575,0.9905318984940975
-1.156875,0.9945487258958782
-1.15625,0.9982308176808438
-1.155625,0.999569760148104
-1.155,0.9982308176808438
-1.154375,0.9972266108303985
-1.15375,0.9965571395967685
-1.153125,0.9952181971295082
-1.1525,0.9928750478118029
-1.151875,0.9901971628772824
-1.15125,0.9875192779427621
-1.150625,0.9855108642418717
-1.15,0.9848413930082416
-1.149375,0.9858455998586867
-1.14875,0.9881887491763921
-1.148125,0.9912013697277277
-1.1475,0.993544519045433
-1.146875,0.9948834615126932
-1.14625,0.9958876683631384
-1.145625,0.9962224039799534
-1.145,0.9955529327463233
-1.144375,0.993209783428618
-1.14375,0.9891929560268373
-1.143125,0.9841719217746114
-1.1425,0.9774772094383104
-1.141875,0.9704477614851943
-1.14125,0.9644225203825233
-1.140625,0.9590667505134824
-1.14,0.9550499231117018
-1.139375,0.9510330957099211
-1.13875,0.9470162683081405
-1.138125,0.9433341765231749
-1.1375,0.9409910272054695
-1.136875,0.938647877887764
-1.13625,0.9363047285700588
-1.135625,0.931953165551463
-1.135,0.925927924448792
-1.134375,0.9162205915611554
-1.13375,0.9058437874398888
-1.133125,0.8968059257858823
-1.1325,0.888437535365506
-1.131875,0.8800691449451296
-1.13125,0.870361812057493
-1.130625,0.8603197435530414
-1.13,0.851951353132665
-1.129375,0.8465955832636242
-1.12875,0.8439176983291037
-1.128125,0.8419092846282134
-1.1275,0.839900870927323
-1.126875,0.8375577216096177
-1.12625,0.8345451010582822
-1.125625,0.8318672161237617
-1.125,0.8295240668060564
-1.124375,0.8268461818715359
-1.12375,0.8245030325538305
-1.123125,0.8221598832361252
-1.1225,0.8198167339184198
-1.121875,0.8184777914511596
-1.12125,0.8178083202175295
-1.120625,0.8184777914511596
-1.12,0.8214904120024951
-1.119375,0.827850388721981
-1.11875,0.8368882503759876
-1.118125,0.8472650544972542
-1.1175,0.858646065468966
-1.116875,0.870696547674308
-1.11625,0.8817428230292048
-1.115625,0.8914501559168414
-1.115,0.9001532819540328
-1.114375,0.9088564079912242
-1.11375,0.9192332121124909
-1.113125,0.9302794874673878
-1.1125,0.9419952340559146
-1.111875,0.9540457162612566
-1.11125,0.9664309340834136
-1.110625,0.9794856231392007
-1.11,0.993544519045433
-1.109375,1.0099465642693706
-1.10875,1.0273528163437535
-1.108125,1.0454285396517664
-1.1075,1.0628347917261491
-1.106875,1.0792368369500869
-1.10625,1.0946346753235794
-1.105625,1.1083588356129965
-1.105,1.1207440534351536
-1.104375,1.1317903287900504
-1.10375,1.1425018685281323
-1.103125,1.1525439370325838
-1.1025,1.1619165343034052
-1.101875,1.1699501891069666
-1.10125,1.1756406945928226
-1.100625,1.1806617288450483
-1.1,1.184678556246829
-1.099375,1.1886953836486096
-1.09875,1.1933816822840204
-1.098125,1.1987374521530614
-1.0975,1.203758486405287
-1.096875,1.209114256274328
-1.09625,1.214135290526554
-1.095625,1.2174826466947044
-1.095,1.2184868535451496
-1.094375,1.215808968610629
-1.09375,1.2104531987415883
-1.093125,1.202084808321212
-1.0925,1.1920427398167601
-1.091875,1.1813312000786784
-1.09125,1.1726280740414872
-1.090625,1.1655986260883708
-1.09,1.1609123274529602
-1.089375,1.1575649712848097
-1.08875,1.153882879499844
-1.088125,1.148192374013988
-1.0875,1.140828190444057
-1.086875,1.1314555931732353
-1.08625,1.1214135246687837
-1.085625,1.1113714561643322
-1.085,1.1016641232766955
-1.084375,1.091956790389059
-1.08375,1.0819147218846072
-1.083125,1.0718726533801557
-1.0825,1.0621653204925192
-1.081875,1.0524579876048825
-1.08125,1.0430853903340611
-1.080625,1.0347169999136847
-1.08,1.0286917588110136
-1.079375,1.023670724558788
-1.07875,1.0206581040074525
-1.078125,1.0189844259233771
-1.0775,1.018314954689747
-1.076875,1.018314954689747
-1.07625,1.018314954689747
-1.075625,1.0173107478393018
-1.075,1.0146328629047814
-1.074375,1.0092770930357406
-1.07375,1.0025823806994394
-1.073125,0.9968918752135836
-1.0725,0.9942139902790631
-1.071875,0.9945487258958782
-1.07125,0.9968918752135836
-1.070625,0.9989002889144739
-1.07,1.0005739669985492
-1.069375,1.0025823806994394
-1.06875,1.004925530017145
-1.068125,1.0086076218021105
-1.0675,1.0126244492038912
-1.066875,1.0163065409888568
-1.06625,1.018314954689747
-1.065625,1.0196538971570073
-1.065,1.0196538971570073
-1.064375,1.0193191615401922
-1.06375,1.0189844259233771
-1.063125,1.017980219072932
-1.0625,1.0163065409888568
-1.061875,1.0149675985215965
-1.06125,1.0159718053720417
-1.060625,1.018649690306562
-1.06,1.0216623108578975
-1.059375,1.024340195792418
-1.05875,1.0260138738764932
-1.058125,1.0270180807269385
-1.0575,1.0276875519605686
-1.056875,1.0290264944278287
-1.05625,1.030700172511904
-1.055625,1.0320391149791643
-1.055,1.0320391149791643
-1.054375,1.0310349081287191
-1.05375,1.0290264944278287
-1.053125,1.0266833451101234
-1.0525,1.024674931409233
-1.051875,1.0233359889419729
-1.05125,1.0230012533251578
-1.050625,1.0233359889419729
-1.05,1.024674931409233
-1.049375,1.0260138738764932
-1.04875,1.025344402642863
-1.048125,1.024005460175603
-1.0475,1.024005460175603
-1.046875,1.025009667026048
-1.04625,1.0266833451101234
-1.045625,1.0273528163437535
-1.045,1.0270180807269385
-1.044375,1.024674931409233
-1.04375,1.0209928396242673
-1.043125,1.0163065409888568
-1.0425,1.012289713587076
-1.041875,1.0099465642693706
-1.04125,1.0086076218021105
-1.040625,1.0069339437180351
-1.04,1.0072686793348502
-1.039375,1.0089423574189256
-1.03875,1.0109507711198158
-1.038125,1.013293920437521
-1.0375,1.0169760122224867
-1.036875,1.0206581040074525
-1.03625,1.0233359889419729
-1.035625,1.024340195792418
-1.035,1.0233359889419729
-1.034375,1.0213275752410824
-1.03375,1.0193191615401922
-1.033125,1.0166412766056718
-1.0325,1.0136286560543362
-1.031875,1.0109507711198158
-1.03125,1.0092770930357406
-1.030625,1.0082728861852954
-1.03,1.0076034149516653
-1.029375,1.0082728861852954
-1.02875,1.0106160355030007
-1.028125,1.0139633916711512
-1.0275,1.0176454834561168
-1.026875,1.0206581040074525
-1.02625,1.0230012533251578
-1.025625,1.024674931409233
-1.025,1.025344402642863
-1.024375,1.024674931409233
-1.02375,1.0216623108578975
-1.023125,1.017980219072932
-1.0225,1.0136286560543362
-1.021875,1.0099465642693706
-1.02125,1.0072686793348502
-1.020625,1.00592973686759
-1.02,1.006264472484405
-1.019375,1.0082728861852954
-1.01875,1.0109507711198158
-1.018125,1.013293920437521
-1.0175,1.0146328629047814
-1.016875,1.0149675985215965
-1.01625,1.0153023341384115
-1.015625,1.0153023341384115
-1.015,1.0139633916711512
-1.014375,1.012289713587076
-1.01375,1.0106160355030007
-1.013125,1.0106160355030007
-1.0125,1.0106160355030007
-1.011875,1.0106160355030007
-1.01125,1.0089423574189256
-1.010625,1.0069339437180351
-1.01,1.005595001250775
-1.009375,1.006264472484405
-1.00875,1.0079381505684804
-1.008125,1.0102812998861856
-1.0075,1.0126244492038912
-1.006875,1.0149675985215965
-1.00625,1.0163065409888568
-1.005625,1.0166412766056718
-1.005,1.0153023341384115
-1.004375,1.0139633916711512
-1.00375,1.0126244492038912
-1.003125,1.011620242353446
-1.0025,1.0106160355030007
-1.001875,1.0086076218021105
-1.00125,1.00526026563396
-1.000625,1.0015781738489944
-1,0.9992350245312889
-0.999375,0.999569760148104
-0.99875,1.0019129094658092
-0.998125,1.004925530017145
-0.9975,1.0072686793348502
-0.996875,1.0082728861852954
-0.99625,1.0076034149516653
-0.995625,1.006264472484405
-0.995,1.005595001250775
-0.994375,1.004925530017145
-0.99375,1.0035865875498846
-0.993125,1.0005739669985492
-0.9925,0.9975613464472136
-0.991875,0.9948834615126932
-0.99125,0.993209783428618
-0.990625,0.9925403121949878
-0.99,0.9922055765781728
-0.989375,0.9922055765781728
-0.98875,0.9925403121949878
-0.988125,0.9918708409613577
-0.9875,0.9925403121949878
-0.986875,0.9942139902790631
-0.98625,0.9975613464472136
-0.985625,0.999569760148104
-0.985,0.999569760148104
-0.984375,0.9985655532976588
-0.98375,0.9975613464472136
-0.983125,0.9965571395967685
-0.9825,0.9948834615126932
-0.981875,0.9925403121949878
-0.98125,0.9898624272604674
-0.980625,0.9868498067091319
-0.98,0.9855108642418717
-0.979375,0.9855108642418717
-0.97875,0.987184542325947
-0.978125,0.9905318984940975
-0.9775,0.993879254662248
-0.976875,0.9975613464472136
-0.97625,1.0005739669985492
-0.975625,1.0025823806994394
-0.975,1.0029171163162545
-0.974375,1.0009087026153642
-0.97375,0.9972266108303985
-0.973125,0.993544519045433
-0.9725,0.9908666341109126
-0.971875,0.9898624272604674
-0.97125,0.9905318984940975
-0.970625,0.9928750478118029
-0.97,0.993879254662248
-0.969375,0.9925403121949878
-0.96875,0.9912013697277277
-0.968125,0.9912013697277277
-0.9675,0.993544519045433
-0.966875,0.9968918752135836
-0.96625,0.999569760148104
-0.965625,1.0012434382321793
-0.965,1.0012434382321793
-0.964375,0.999904495764919
-0.96375,0.9972266108303985
-0.963125,0.993879254662248
-0.9625,0.9908666341109126
-0.961875,0.9885234847932072
-0.96125,0.9865150710923168
-0.960625,0.9855108642418717
-0.96,0.9858455998586867
-0.959375,0.987184542325947
-0.95875,0.9891929560268373
-0.958125,0.9918708409613577
-0.9575,0.9955529327463233
-0.956875,0.999904495764919
-0.95625,1.0042560587835148
-0.955625,1.0076034149516653
-0.955,1.0082728861852954
-0.954375,1.00592973686759
-0.95375,1.0025823806994394
-0.953125,0.999569760148104
-0.9525,0.9958876683631384
-0.951875,0.9922055765781728
-0.95125,0.9891929560268373
-0.950625,0.9881887491763921
-0.95,0.9895276916436523
-0.949375,0.9928750478118029
-0.94875,0.9968918752135836
-0.948125,1.000239231381734
-0.9475,1.0039213231666997
-0.946875,1.0072686793348502
-0.94625,1.0106160355030007
-0.945625,1.0129591848207062
-0.945,1.0139633916711512
-0.944375,1.012289713587076
-0.94375,1.0082728861852954
-0.943125,1.0029171163162545
-0.9425,0.9992350245312889
-0.941875,0.9965571395967685
-0.94125,0.9945487258958782
-0.940625,0.993209783428618
-0.94,0.993209783428618
-0.939375,0.9942139902790631
-0.93875,0.9962224039799534
-0.938125,0.9992350245312889
-0.9375,1.0032518519330695
-0.936875,1.0076034149516653
-0.93625,1.011620242353446
-0.935625,1.0142981272879663
-0.935,1.0153023341384115
-0.934375,1.0142981272879663
-0.93375,1.011954977970261
-0.933125,1.0082728861852954
-0.9325,1.0045907944003298
-0.931875,1.0022476450826243
-0.93125,1.0009087026153642
-0.930625,0.999904495764919
-0.93,0.9992350245312889
-0.929375,0.999569760148104
-0.92875,1.0015781738489944
-0.928125,1.004925530017145
-0.9275,1.0082728861852954
-0.926875,1.0112855067366309
-0.92625,1.012289713587076
-0.925625,1.0112855067366309
-0.925,1.0089423574189256
-0.924375,1.005595001250775
-0.92375,1.0025823806994394
-0.923125,0.999904495764919
-0.9225,0.9975613464472136
-0.921875,0.9955529327463233
-0.92125,0.993879254662248
-0.920625,0.993209783428618
-0.92,0.9928750478118029
-0.919375,0.993209783428618
-0.91875,0.9928750478118029
-0.918125,0.993544519045433
-0.9175,0.9945487258958782
-0.916875,0.9962224039799534
-0.91625,0.9975613464472136
-0.915625,0.9992350245312889
-0.915,1.0005739669985492
-0.914375,1.0015781738489944
-0.91375,1.0012434382321793
-0.913125,0.9992350245312889
-0.9125,0.9962224039799534
-0.911875,0.993209783428618
-0.91125,0.9905318984940975
-0.910625,0.9885234847932072
-0.91,0.9881887491763921
-0.909375,0.9895276916436523
-0.90875,0.9918708409613577
-0.908125,0.9945487258958782
-0.9075,0.9958876683631384
-0.906875,0.9968918752135836
-0.90625,0.9992350245312889
-0.905625,1.0015781738489944
-0.905,1.0032518519330695
-0.904375,1.0025823806994394
-0.90375,1.0009087026153642
-0.903125,0.999569760148104
-0.9025,0.9989002889144739
-0.901875,0.9975613464472136
-0.90125,0.9962224039799534
-0.900625,0.9952181971295082
-0.9,0.9948834615126932
-0.899375,0.9955529327463233
-0.89875,0.9965571395967685
-0.898125,0.9978960820640287
-0.8975,0.999569760148104
-0.896875,1.0019129094658092
-0.89625,1.0042560587835148
-0.895625,1.006264472484405
-0.895,1.0076034149516653
-0.894375,1.0076034149516653
-0.89375,1.00592973686759
-0.893125,1.0029171163162545
-0.8925,1.000239231381734
-0.891875,0.9982308176808438
-0.89125,0.9972266108303985
-0.890625,0.9968918752135836
-0.89,0.9972266108303985
-0.889375,0.9978960820640287
-0.88875,0.9989002889144739
-0.888125,1.0009087026153642
-0.8875,1.0039213231666997
-0.886875,1.00659920810122
-0.88625,1.0079381505684804
-0.885625,1.0072686793348502
-0.885,1.005595001250775
-0.884375,1.0032518519330695
-0.88375,1.0009087026153642
-0.883125,0.9975613464472136
-0.8825,0.9945487258958782
-0.881875,0.9918708409613577
-0.88125,0.9898624272604674
-0.880625,0.9898624272604674
-0.88,0.9918708409613577
-0.879375,0.9948834615126932
-0.87875,0.9992350245312889
-0.878125,1.0039213231666997
-0.8775,1.0076034149516653
-0.876875,1.0102812998861856
-0.87625,1.0106160355030007
-0.875625,1.0092770930357406
-0.875,1.0076034149516653
-0.874375,1.0072686793348502
-0.87375,1.0072686793348502
-0.873125,1.0076034149516653
-0.8725,1.0082728861852954
-0.871875,1.0092770930357406
-0.87125,1.0099465642693706
-0.870625,1.0112855067366309
-0.87,1.0146328629047814
-0.869375,1.0189844259233771
-0.86875,1.0233359889419729
-0.868125,1.0280222875773837
-0.8675,1.0313696437455342
-0.866875,1.0333780574464244
-0.86625,1.0350517355304998
-0.865625,1.037394884848205
-0.865,1.0407422410163556
-0.864375,1.043754861567691
-0.86375,1.0457632752685815
-0.863125,1.0464327465022116
-0.8625,1.0464327465022116
-0.861875,1.0460980108853966
-0.86125,1.0457632752685815
-0.860625,1.0460980108853966
-0.86,1.0481064245862868
-0.859375,1.0507843095208074
-0.85875,1.054466401305773
-0.858125,1.0588179643243687
-0.8575,1.0638389985765944
-0.856875,1.0688600328288203
-0.85625,1.072876860230601
-0.855625,1.0758894807819364
-0.855,1.0775631588660117
-0.854375,1.0768936876323816
-0.85375,1.0752200095483062
-0.853125,1.074215802697861
-0.8525,1.074550538314676
-0.851875,1.0758894807819364
-0.85125,1.0775631588660117
-0.850625,1.0782326300996417
-0.85,1.079906308183717
-0.849375,1.0825841931182374
-0.84875,1.086266284903203
-0.848125,1.0906178479217987
-0.8475,1.0949694109403945
-0.846875,1.0989862383421751
-0.84625,1.1019988588935106
-0.845625,1.103672536977586
-0.845,1.1033378013607709
-0.844375,1.1013293876598804
-0.84375,1.09798203149173
-0.843125,1.0949694109403945
-0.8425,1.092291526005874
-0.841875,1.0899483766881686
-0.84125,1.0896136410713535
-0.840625,1.0896136410713535
-0.84,1.0899483766881686
-0.839375,1.0912873191554289
-0.83875,1.0939652040899492
-0.838125,1.0973125602580998
-0.8375,1.1009946520430653
-0.836875,1.1033378013607709
-0.83625,1.103672536977586
-0.835625,1.1016641232766955
-0.835,1.09798203149173
-0.834375,1.0946346753235794
-0.83375,1.091622054772244
-0.833125,1.0886094342209085
-0.8325,1.086266284903203
-0.831875,1.0842578712023128
-0.83125,1.0832536643518675
-0.830625,1.0835883999686826
-0.83,1.0842578712023128
-0.829375,1.0845926068191278
-0.82875,1.0842578712023128
-0.828125,1.0842578712023128
-0.8275,1.0852620780527578
-0.826875,1.0869357561368331
-0.82625,1.0879399629872784
-0.825625,1.0876052273704633
-0.825,1.084927342435943
-0.824375,1.080241043800532
-0.82375,1.0738810670810461
-0.823125,1.06752109036156
-0.8225,1.0621653204925192
-0.821875,1.0588179643243687
-0.82125,1.0574790218571084
-0.820625,1.0581484930907386
-0.82,1.0594874355579986
-0.819375,1.060826378025259
-0.81875,1.061495849258889
-0.818125,1.0628347917261491
-0.8175,1.0641737341934094
-0.816875,1.0645084698102245
-0.81625,1.0631695273429642
-0.815625,1.061495849258889
-0.815,1.0594874355579986
-0.814375,1.0571442862402933
-0.81375,1.0541316656889579
-0.813125,1.0507843095208074
-0.8125,1.0464327465022116
-0.811875,1.042750654717246
-0.81125,1.0404075053995405
-0.810625,1.0390685629322804
-0.81,1.0394032985490955
-0.809375,1.0407422410163556
-0.80875,1.042415919100431
-0.808125,1.0444243328013212
-0.8075,1.0471022177358418
-0.806875,1.049445367053547
-0.80625,1.0507843095208074
-0.805625,1.0514537807544373
-0.805,1.0511190451376224
-0.804375,1.0484411602031019
-0.80375,1.0450938040349513
-0.803125,1.0414117122499857
-0.8025,1.0390685629322804
-0.801875,1.0380643560818352
-0.80125,1.037394884848205
-0.800625,1.0363906779977599
-0.8,1.0353864711473149
-0.799375,1.0340475286800546
-0.79875,1.0337127930632395
-0.798125,1.0350517355304998
-0.7975,1.037394884848205
-0.796875,1.0410769766331707
-0.79625,1.0440895971845061
-0.795625,1.0447590684181363
-0.795,1.0430853903340611
-0.794375,1.0410769766331707
-0.79375,1.0394032985490955
-0.793125,1.0380643560818352
-0.7925,1.0363906779977599
-0.791875,1.0340475286800546
-0.79125,1.0320391149791643
-0.790625,1.0293612300446437
-0.79,1.0276875519605686
-0.789375,1.0263486094933083
-0.78875,1.0263486094933083
-0.788125,1.0270180807269385
-0.7875,1.0286917588110136
-0.786875,1.0320391149791643
-0.78625,1.03572120676413
-0.785625,1.037394884848205
-0.785,1.03706014923139
-0.784375,1.0360559423809448
-0.78375,1.0340475286800546
-0.783125,1.0313696437455342
-0.7825,1.0290264944278287
-0.781875,1.0276875519605686
-0.78125,1.0260138738764932
-0.780625,1.025009667026048
-0.78,1.024340195792418
-0.779375,1.024340195792418
-0.77875,1.025344402642863
-0.778125,1.0283570231941987
-0.7775,1.0327085862127943
-0.776875,1.0363906779977599
-0.77625,1.0380643560818352
-0.775625,1.0380643560818352
-0.775,1.036725413614575
-0.774375,1.0350517355304998
-0.77375,1.0330433218296093
-0.773125,1.0310349081287191
-0.7725,1.0286917588110136
-0.771875,1.0263486094933083
-0.77125,1.024340195792418
-0.770625,1.023670724558788
-0.77,1.024674931409233
-0.769375,1.0266833451101234
-0.76875,1.0283570231941987
-0.768125,1.0293612300446437
-0.7675,1.0293612300446437
-0.766875,1.0283570231941987
-0.76625,1.0266833451101234
-0.765625,1.025009667026048
-0.765,1.023670724558788
-0.764375,1.0226665177083427
-0.76375,1.0216623108578975
-0.763125,1.0199886327738223
-0.7625,1.0176454834561168
-0.761875,1.0139633916711512
-0.76125,1.0102812998861856
-0.760625,1.0076034149516653
-0.76,1.006264472484405
-0.759375,1.0079381505684804
-0.75875,1.011620242353446
-0.758125,1.0156370697552266
-0.7575,1.0189844259233771
-0.756875,1.0206581040074525
-0.75625,1.0209928396242673
-0.755625,1.0199886327738223
-0.755,1.018314954689747
-0.754375,1.0163065409888568
-0.75375,1.0146328629047814
-0.753125,1.011954977970261
-0.7525,1.0096118286525555
-0.751875,1.0076034149516653
-0.75125,1.005595001250775
-0.750625,1.004925530017145
-0.75,1.006264472484405
-0.749375,1.0082728861852954
-0.74875,1.0106160355030007
-0.748125,1.0126244492038912
-0.7475,1.0146328629047814
-0.746875,1.0159718053720417
-0.74625,1.0163065409888568
-0.745625,1.0159718053720417
-0.745,1.0149675985215965
-0.744375,1.0136286560543362
-0.74375,1.0112855067366309
-0.743125,1.0086076218021105
-0.7425,1.0069339437180351
-0.741875,1.00526026563396
-0.74125,1.0042560587835148
-0.740625,1.0039213231666997
-0.74,1.0039213231666997
-0.739375,1.0042560587835148
-0.73875,1.004925530017145
-0.738125,1.00592973686759
-0.7375,1.0069339437180351
-0.736875,1.0076034149516653
-0.73625,1.0082728861852954
-0.735625,1.0092770930357406
-0.735,1.0099465642693706
-0.734375,1.0106160355030007
-0.73375,1.0106160355030007
-0.733125,1.0109507711198158
-0.7325,1.0106160355030007
-0.731875,1.0102812998861856
-0.73125,1.0092770930357406
-0.730625,1.0089423574189256
-0.73,1.0092770930357406
-0.729375,1.0112855067366309
-0.72875,1.0139633916711512
-0.728125,1.0173107478393018
-0.7275,1.0196538971570073
-0.726875,1.0209928396242673
-0.72625,1.0213275752410824
-0.725625,1.0206581040074525
-0.725,1.0193191615401922
-0.724375,1.0169760122224867
-0.72375,1.013293920437521
-0.723125,1.0102812998861856
-0.7225,1.0082728861852954
-0.721875,1.00659920810122
-0.72125,1.005595001250775
-0.720625,1.00526026563396
-0.72,1.00592973686759
-0.719375,1.0072686793348502
-0.71875,1.0079381505684804
-0.718125,1.0086076218021105
-0.7175,1.0092770930357406
-0.716875,1.0099465642693706
-0.71625,1.0099465642693706
-0.715625,1.0092770930357406
-0.715,1.0082728861852954
-0.714375,1.00659920810122
-0.71375,1.004925530017145
-0.713125,1.0035865875498846
-0.7125,1.0032518519330695
-0.711875,1.0032518519330695
-0.71125,1.0032518519330695
-0.710625,1.0032518519330695
-0.71,1.0042560587835148
-0.709375,1.006264472484405
-0.70875,1.0086076218021105
-0.708125,1.0099465642693706
-0.7075,1.0106160355030007
-0.706875,1.0106160355030007
-0.70625,1.011620242353446
-0.705625,1.0126244492038912
-0.705,1.0129591848207062
-0.704375,1.012289713587076
-0.70375,1.0109507711198158
-0.703125,1.0096118286525555
-0.7025,1.0082728861852954
-0.701875,1.00659920810122
-0.70125,1.004925530017145
-0.700625,1.0042560587835148
-0.7,1.004925530017145
-0.699375,1.00592973686759
-0.69875,1.0076034149516653
-0.698125,1.0099465642693706
-0.6975,1.0126244492038912
-0.696875,1.0139633916711512
-0.69625,1.0139633916711512
-0.695625,1.013293920437521
-0.695,1.013293920437521
-0.694375,1.0126244492038912
-0.69375,1.0102812998861856
-0.693125,1.005595001250775
-0.6925,1.000239231381734
-0.691875,0.9962224039799534
-0.69125,0.993879254662248
-0.690625,0.993544519045433
-0.69,0.9948834615126932
-0.689375,0.9989002889144739
-0.68875,1.0015781738489944
-0.688125,1.0019129094658092
-0.6875,1.0009087026153642
-0.686875,1.0005739669985492
-0.68625,1.0005739669985492
-0.685625,1.000239231381734
-0.685,0.9992350245312889
-0.684375,0.9972266108303985
-0.68375,0.993544519045433
-0.683125,0.9901971628772824
-0.6825,0.9865150710923168
-0.681875,0.9841719217746114
-0.68125,0.9838371861577964
-0.680625,0.9858455998586867
-0.68,0.9888582204100222
-0.679375,0.9928750478118029
-0.67875,0.9968918752135836
-0.678125,1.000239231381734
-0.6775,1.0022476450826243
-0.676875,1.0022476450826243
-0.67625,1.0019129094658092
-0.675625,1.0009087026153642
-0.675,0.999569760148104
-0.674375,0.9972266108303985
-0.67375,0.993879254662248
-0.673125,0.9918708409613577
-0.6725,0.9912013697277277
-0.671875,0.9912013697277277
-0.67125,0.9912013697277277
-0.670625,0.9908666341109126
-0.67,0.9912013697277277
-0.669375,0.9928750478118029
-0.66875,0.9955529327463233
-0.668125,0.9982308176808438
-0.6675,1.0009087026153642
-0.666875,1.0029171163162545
-0.66625,1.0039213231666997
-0.665625,1.0035865875498846
-0.665,1.0029171163162545
-0.664375,1.0015781738489944
-0.66375,0.999904495764919
-0.663125,0.9975613464472136
-0.6625,0.9942139902790631
-0.661875,0.9912013697277277
-0.66125,0.9905318984940975
-0.660625,0.9912013697277277
-0.66,0.9912013697277277
-0.659375,0.9898624272604674
-0.65875,0.9895276916436523
-0.658125,0.9901971628772824
-0.6575,0.9918708409613577
-0.656875,0.9945487258958782
-0.65625,0.9975613464472136
-0.655625,0.9985655532976588
-0.655,0.9975613464472136
-0.654375,0.9945487258958782
-0.65375,0.9908666341109126
-0.653125,0.9868498067091319
-0.6525,0.9828329793073513
-0.651875,0.9788161519055706
-0.65125,0.9758035313542351
-0.650625,0.9744645888869748
-0.65,0.9747993245037899
-0.649375,0.9758035313542351
-0.64875,0.9774772094383104
-0.648125,0.9794856231392007
-0.6475,0.9821635080737211
-0.646875,0.9838371861577964
-0.64625,0.9841719217746114
-0.645625,0.9831677149241663
-0.645,0.981159301223276
-0.644375,0.9784814162887555
-0.64375,0.9761382669710501
-0.643125,0.9731256464197147
-0.6425,0.969108819017934
-0.641875,0.9657614628497835
-0.64125,0.9637530491488931
-0.640625,0.9647572559993383
-0.64,0.9681046121674889
-0.639375,0.9724561751860845
-0.63875,0.9761382669710501
-0.638125,0.9794856231392007
-0.6375,0.9818287724569061
-0.636875,0.9831677149241663
-0.63625,0.9831677149241663
-0.635625,0.9828329793073513
-0.635,0.9818287724569061
-0.634375,0.9808245656064609
-0.63375,0.9801550943728308
-0.633125,0.9794856231392007
-0.6325,0.9784814162887555
-0.631875,0.9784814162887555
-0.63125,0.9788161519055706
-0.630625,0.9794856231392007
-0.63,0.9804898299896458
-0.629375,0.9828329793073513
-0.62875,0.9861803354755018
-0.628125,0.9901971628772824
-0.6275,0.993544519045433
-0.626875,0.9958876683631384
-0.62625,0.9968918752135836
-0.625625,0.9965571395967685
-0.625,0.9952181971295082
-0.624375,0.993209783428618
-0.62375,0.9905318984940975
-0.623125,0.9881887491763921
-0.6225,0.9865150710923168
-0.621875,0.9858455998586867
-0.62125,0.9851761286250567
-0.620625,0.9848413930082416
-0.62,0.9855108642418717
-0.619375,0.987854013559577
-0.61875,0.9908666341109126
-0.618125,0.9945487258958782
-0.6175,0.9975613464472136
-0.616875,1.000239231381734
-0.61625,1.0025823806994394
-0.615625,1.0042560587835148
-0.615,1.0045907944003298
-0.614375,1.0039213231666997
-0.61375,1.0025823806994394
-0.613125,1.0012434382321793
-0.6125,1.0012434382321793
-0.611875,1.0022476450826243
-0.61125,1.0039213231666997
-0.610625,1.00526026563396
-0.61,1.006264472484405
-0.609375,1.0079381505684804
-0.60875,1.0096118286525555
-0.608125,1.011620242353446
-0.6075,1.0139633916711512
-0.606875,1.0169760122224867
-0.60625,1.0199886327738223
-0.605625,1.0223317820915276
-0.605,1.0226665177083427
-0.604375,1.0213275752410824
-0.60375,1.0189844259233771
-0.603125,1.0163065409888568
-0.6025,1.0142981272879663
-0.601875,1.0126244492038912
-0.60125,1.012289713587076
-0.600625,1.0129591848207062
-0.6,1.0153023341384115
-0.599375,1.017980219072932
-0.59875,1.0213275752410824
-0.598125,1.024005460175603
-0.5975,1.0256791382596782
-0.596875,1.0266833451101234
-0.59625,1.0256791382596782
-0.595625,1.024005460175603
-0.595,1.0219970464747126
-0.594375,1.0196538971570073
-0.59375,1.017980219072932
-0.593125,1.0166412766056718
-0.5925,1.0159718053720417
-0.591875,1.0166412766056718
-0.59125,1.018314954689747
-0.590625,1.0209928396242673
-0.59,1.0226665177083427
-0.589375,1.0230012533251578
-0.58875,1.0226665177083427
-0.588125,1.0233359889419729
-0.5875,1.024340195792418
-0.586875,1.0256791382596782
-0.58625,1.023670724558788
-0.585625,1.0196538971570073
-0.585,1.0163065409888568
-0.584375,1.0142981272879663
-0.58375,1.0129591848207062
-0.583125,1.0109507711198158
-0.5825,1.0076034149516653
-0.581875,1.0035865875498846
-0.58125,0.999569760148104
-0.580625,0.9968918752135836
-0.58,0.9962224039799534
-0.579375,0.9972266108303985
-0.57875,1.0005739669985492
-0.578125,1.005595001250775
-0.5775,1.0102812998861856
-0.576875,1.0129591848207062
-0.57625,1.012289713587076
-0.575625,1.0099465642693706
-0.575,1.0069339437180351
-0.574375,1.0042560587835148
-0.57375,1.0009087026153642
-0.573125,0.9972266108303985
-0.5725,0.993544519045433
-0.571875,0.9912013697277277
-0.57125,0.9898624272604674
-0.570625,0.9905318984940975
-0.57,0.9922055765781728
-0.569375,0.9948834615126932
-0.56875,0.9982308176808438
-0.568125,1.0019129094658092
-0.5675,1.005595001250775
-0.566875,1.0069339437180351
-0.56625,1.0072686793348502
-0.565625,1.00659920810122
-0.565,1.006264472484405
-0.564375,1.0069339437180351
-0.56375,1.0076034149516653
-0.563125,1.0069339437180351
-0.5625,1.0039213231666997
-0.561875,1.0009087026153642
-0.56125,0.999904495764919
-0.560625,1.0005739669985492
-0.56,1.0029171163162545
-0.559375,1.005595001250775
-0.55875,1.0082728861852954
-0.558125,1.0109507711198158
-0.5575,1.0149675985215965
-0.556875,1.0196538971570073
-0.55625,1.024005460175603
-0.555625,1.0266833451101234
-0.555,1.0276875519605686
-0.554375,1.0266833451101234
-0.55375,1.024674931409233
-0.553125,1.0216623108578975
-0.5525,1.0196538971570073
-0.551875,1.018314954689747
-0.55125,1.0176454834561168
-0.550625,1.0189844259233771
-0.55,1.0219970464747126
-0.549375,1.0260138738764932
-0.54875,1.030030701278274
-0.548125,1.0340475286800546
-0.5475,1.0377296204650202
-0.546875,1.0410769766331707
-0.54625,1.042750654717246
-0.545625,1.042750654717246
-0.545,1.042081183483616
-0.544375,1.0400727697827254
-0.54375,1.0363906779977599
-0.543125,1.0327085862127943
-0.5425,1.030365436895089
-0.541875,1.030030701278274
-0.54125,1.030365436895089
-0.540625,1.0310349081287191
-0.54,1.0317043793623493
-0.539375,1.0337127930632395
-0.53875,1.036725413614575
-0.538125,1.0404075053995405
-0.5375,1.0430853903340611
-0.536875,1.0444243328013212
-0.53625,1.0447590684181363
-0.535625,1.043754861567691
-0.535,1.0414117122499857
-0.534375,1.0387338273154654
-0.53375,1.0353864711473149
-0.533125,1.0330433218296093
-0.5325,1.0317043793623493
-0.531875,1.0317043793623493
-0.53125,1.0317043793623493
-0.530625,1.0323738505959792
-0.53,1.0323738505959792
-0.529375,1.0327085862127943
-0.52875,1.0337127930632395
-0.528125,1.0363906779977599
-0.5275,1.0394032985490955
-0.526875,1.0410769766331707
-0.52625,1.0410769766331707
-0.525625,1.0394032985490955
-0.525,1.036725413614575
-0.524375,1.0330433218296093
-0.52375,1.0296959656614588
-0.523125,1.0266833451101234
-0.5225,1.025344402642863
-0.521875,1.024340195792418
-0.52125,1.024005460175603
-0.520625,1.024005460175603
-0.52,1.025009667026048
-0.519375,1.0266833451101234
-0.51875,1.0290264944278287
-0.518125,1.030700172511904
-0.5175,1.0320391149791643
-0.516875,1.0323738505959792
-0.51625,1.0313696437455342
-0.515625,1.030030701278274
-0.515,1.0283570231941987
-0.514375,1.0260138738764932
-0.51375,1.0226665177083427
-0.513125,1.018314954689747
-0.5125,1.0146328629047814
-0.511875,1.0126244492038912
-0.51125,1.012289713587076
-0.510625,1.0126244492038912
-0.51,1.0136286560543362
-0.509375,1.0146328629047814
-0.50875,1.0153023341384115
-0.508125,1.0166412766056718
-0.5075,1.018649690306562
-0.506875,1.0213275752410824
-0.50625,1.023670724558788
-0.505625,1.024005460175603
-0.505,1.0226665177083427
-0.504375,1.0189844259233771
-0.50375,1.0142981272879663
-0.503125,1.0092770930357406
-0.5025,1.00526026563396
-0.501875,1.0009087026153642
-0.50125,0.9968918752135836
-0.500625,0.9928750478118029
-0.5,0.9912013697277277
-0.499375,0.9925403121949878
-0.49875,0.9965571395967685
-0.498125,1.0022476450826243
-0.4975,1.0072686793348502
-0.496875,1.0106160355030007
-0.49625,1.013293920437521
-0.495625,1.0146328629047814
-0.495,1.013293920437521
-0.494375,1.0089423574189256
-0.49375,1.0022476450826243
-0.493125,0.9962224039799534
-0.4925,0.9915361053445426
-0.491875,0.9881887491763921
-0.49125,0.9865150710923168
-0.490625,0.9861803354755018
-0.49,0.9868498067091319
-0.489375,0.9888582204100222
-0.48875,0.9922055765781728
-0.488125,0.9975613464472136
-0.4875,1.0025823806994394
-0.486875,1.006264472484405
-0.48625,1.0076034149516653
-0.485625,1.0069339437180351
-0.485,1.0042560587835148
-0.484375,1.000239231381734
-0.48375,0.9965571395967685
-0.483125,0.9942139902790631
-0.4825,0.9928750478118029
-0.481875,0.9925403121949878
-0.48125,0.9915361053445426
-0.480625,0.9912013697277277
-0.48,0.9928750478118029
-0.479375,0.9965571395967685
-0.47875,1.0022476450826243
-0.478125,1.0076034149516653
-0.4775,1.0109507711198158
-0.476875,1.0126244492038912
-0.47625,1.0129591848207062
-0.475625,1.011620242353446
-0.475,1.0086076218021105
-0.474375,1.005595001250775
-0.47375,1.0035865875498846
-0.473125,1.0032518519330695
-0.4725,1.0035865875498846
-0.471875,1.0039213231666997
-0.47125,1.0042560587835148
-0.470625,1.00526026563396
-0.47,1.0069339437180351
-0.469375,1.0089423574189256
-0.46875,1.011620242353446
-0.468125,1.0146328629047814
-0.4675,1.0176454834561168
-0.466875,1.0199886327738223
-0.46625,1.0216623108578975
-0.465625,1.0219970464747126
-0.465,1.0213275752410824
-0.464375,1.0196538971570073
-0.46375,1.0176454834561168
-0.463125,1.0156370697552266
-0.4625,1.0136286560543362
-0.461875,1.011620242353446
-0.46125,1.0106160355030007
-0.460625,1.0096118286525555
-0.46,1.0099465642693706
-0.459375,1.012289713587076
-0.45875,1.0159718053720417
-0.458125,1.0196538971570073
-0.4575,1.0233359889419729
-0.456875,1.0263486094933083
-0.45625,1.0283570231941987
-0.455625,1.0286917588110136
-0.455,1.0270180807269385
-0.454375,1.024005460175603
-0.45375,1.0203233683906374
-0.453125,1.0169760122224867
-0.4525,1.0139633916711512
-0.451875,1.0129591848207062
-0.45125,1.0146328629047814
-0.450625,1.0176454834561168
-0.45,1.0206581040074525
-0.449375,1.0233359889419729
-0.44875,1.025344402642863
-0.448125,1.0270180807269385
-0.4475,1.0270180807269385
-0.446875,1.0256791382596782
-0.44625,1.0233359889419729
-0.445625,1.0219970464747126
-0.445,1.0209928396242673
-0.444375,1.0199886327738223
-0.44375,1.0166412766056718
-0.443125,1.013293920437521
-0.4425,1.0112855067366309
-0.441875,1.0112855067366309
-0.44125,1.0126244492038912
-0.440625,1.0139633916711512
-0.44,1.0139633916711512
-0.439375,1.0149675985215965
-0.43875,1.0166412766056718
-0.438125,1.0189844259233771
-0.4375,1.0216623108578975
-0.436875,1.024674931409233
-0.43625,1.0263486094933083
-0.435625,1.0266833451101234
-0.435,1.0260138738764932
-0.434375,1.024674931409233
-0.43375,1.0219970464747126
-0.433125,1.018314954689747
-0.4325,1.0146328629047814
-0.431875,1.0129591848207062
-0.43125,1.0129591848207062
-0.430625,1.0146328629047814
-0.43,1.0173107478393018
-0.429375,1.0193191615401922
-0.42875,1.0206581040074525
-0.428125,1.0223317820915276
-0.4275,1.024674931409233
-0.426875,1.0270180807269385
-0.42625,1.0280222875773837
-0.425625,1.0276875519605686
-0.425,1.0256791382596782
-0.424375,1.0223317820915276
-0.42375,1.0189844259233771
-0.423125,1.0156370697552266
-0.4225,1.013293920437521
-0.421875,1.0106160355030007
-0.42125,1.0072686793348502
-0.420625,1.004925530017145
-0.42,1.00526026563396
-0.419375,1.0072686793348502
-0.41875,1.0096118286525555
-0.418125,1.0112855067366309
-0.4175,1.013293920437521
-0.416875,1.0142981272879663
-0.41625,1.0142981272879663
-0.415625,1.013293920437521
-0.415,1.0112855067366309
-0.414375,1.0096118286525555
-0.41375,1.0082728861852954
-0.413125,1.0069339437180351
-0.4125,1.00592973686759
-0.411875,1.004925530017145
-0.41125,1.004925530017145
-0.410625,1.00592973686759
-0.41,1.0076034149516653
-0.409375,1.0102812998861856
-0.40875,1.0129591848207062
-0.408125,1.0149675985215965
-0.4075,1.0169760122224867
-0.406875,1.018649690306562
-0.40625,1.0203233683906374
-0.405625,1.0213275752410824
-0.405,1.0213275752410824
-0.404375,1.0203233683906374
-0.40375,1.018649690306562
-0.403125,1.0166412766056718
-0.4025,1.0149675985215965
-0.401875,1.0146328629047814
-0.40125,1.0173107478393018
-0.400625,1.0213275752410824
-0.4,1.025009667026048
-0.399375,1.0263486094933083
-0.39875,1.0273528163437535
-0.398125,1.0293612300446437
-0.3975,1.0313696437455342
-0.396875,1.0340475286800546
-0.39625,1.0363906779977599
-0.395625,1.0377296204650202
-0.395,1.037394884848205
-0.394375,1.0350517355304998
-0.39375,1.0320391149791643
-0.393125,1.0290264944278287
-0.3925,1.0270180807269385
-0.391875,1.0266833451101234
-0.39125,1.0273528163437535
-0.390625,1.0283570231941987
-0.39,1.0290264944278287
-0.389375,1.030365436895089
-0.38875,1.0327085862127943
-0.388125,1.0360559423809448
-0.3875,1.0390685629322804
-0.386875,1.0407422410163556
-0.38625,1.0404075053995405
-0.385625,1.0383990916986503
-0.385,1.0360559423809448
-0.384375,1.0337127930632395
-0.38375,1.0317043793623493
-0.383125,1.0313696437455342
-0.3825,1.0313696437455342
-0.381875,1.0310349081287191
-0.38125,1.0310349081287191
-0.380625,1.0317043793623493
-0.38,1.0327085862127943
-0.379375,1.0347169999136847
-0.37875,1.036725413614575
-0.378125,1.0383990916986503
-0.3775,1.0394032985490955
-0.376875,1.0407422410163556
-0.37625,1.042415919100431
-0.375625,1.0430853903340611
-0.375,1.042750654717246
-0.374375,1.0407422410163556
-0.37375,1.037394884848205
-0.373125,1.0343822642968696
-0.3725,1.0343822642968696
-0.371875,1.03572120676413
-0.37125,1.0380643560818352
-0.370625,1.0407422410163556
-0.37,1.042750654717246
-0.369375,1.0440895971845061
-0.36875,1.0457632752685815
-0.368125,1.0474369533526566
-0.3675,1.049110631436732
-0.366875,1.0501148382871772
-0.36625,1.0501148382871772
-0.365625,1.0481064245862868
-0.365,1.0464327465022116
-0.364375,1.0444243328013212
-0.36375,1.042750654717246
-0.363125,1.0407422410163556
-0.3625,1.0397380341659104
-0.361875,1.0390685629322804
-0.36125,1.0387338273154654
-0.360625,1.0380643560818352
-0.36,1.0383990916986503
-0.359375,1.0387338273154654
-0.35875,1.0397380341659104
-0.358125,1.0414117122499857
-0.3575,1.0440895971845061
-0.356875,1.0464327465022116
-0.35625,1.0477716889694717
-0.355625,1.0481064245862868
-0.355,1.0471022177358418
-0.354375,1.0450938040349513
-0.35375,1.042415919100431
-0.353125,1.0394032985490955
-0.3525,1.036725413614575
-0.351875,1.0347169999136847
-0.35125,1.0333780574464244
-0.350625,1.0337127930632395
-0.35,1.0350517355304998
-0.349375,1.0363906779977599
-0.34875,1.037394884848205
-0.348125,1.0387338273154654
-0.3475,1.0404075053995405
-0.346875,1.0414117122499857
-0.34625,1.0410769766331707
-0.345625,1.0394032985490955
-0.345,1.037394884848205
-0.344375,1.0353864711473149
-0.34375,1.0330433218296093
-0.343125,1.030700172511904
-0.3425,1.0276875519605686
-0.341875,1.025009667026048
-0.34125,1.0230012533251578
-0.340625,1.0223317820915276
-0.34,1.024005460175603
-0.339375,1.0273528163437535
-0.33875,1.030030701278274
-0.338125,1.0320391149791643
-0.3375,1.0343822642968696
-0.336875,1.03572120676413
-0.33625,1.036725413614575
-0.335625,1.036725413614575
-0.335,1.0350517355304998
-0.334375,1.0327085862127943
-0.33375,1.0293612300446437
-0.333125,1.0256791382596782
-0.3325,1.0223317820915276
-0.331875,1.0203233683906374
-0.33125,1.0203233683906374
-0.330625,1.0223317820915276
-0.33,1.025009667026048
-0.329375,1.0270180807269385
-0.32875,1.0290264944278287
-0.328125,1.0310349081287191
-0.3275,1.0320391149791643
-0.326875,1.0310349081287191
-0.32625,1.0293612300446437
-0.325625,1.0290264944278287
-0.325,1.0286917588110136
-0.324375,1.0276875519605686
-0.32375,1.0260138738764932
-0.323125,1.023670724558788
-0.3225,1.0209928396242673
-0.321875,1.0189844259233771
-0.32125,1.018649690306562
-0.320625,1.0193191615401922
-0.32,1.0206581040074525
-0.319375,1.0223317820915276
-0.31875,1.024674931409233
-0.318125,1.0273528163437535
-0.3175,1.0296959656614588
-0.316875,1.030365436895089
-0.31625,1.030030701278274
-0.315625,1.0286917588110136
-0.315,1.0266833451101234
-0.314375,1.024674931409233
-0.31375,1.0230012533251578
-0.313125,1.0213275752410824
-0.3125,1.0203233683906374
-0.311875,1.0199886327738223
-0.31125,1.0193191615401922
-0.310625,1.0193191615401922
-0.31,1.0209928396242673
-0.309375,1.024340195792418
-0.30875,1.0280222875773837
-0.308125,1.030700172511904
-0.3075,1.0323738505959792
-0.306875,1.0327085862127943
-0.30625,1.0317043793623493
-0.305625,1.0293612300446437
-0.305,1.0266833451101234
-0.304375,1.024005460175603
-0.30375,1.0223317820915276
-0.303125,1.0206581040074525
-0.3025,1.0189844259233771
-0.301875,1.0166412766056718
-0.30125,1.0139633916711512
-0.300625,1.0129591848207062
-0.3,1.0139633916711512
-0.299375,1.0163065409888568
-0.29875,1.017980219072932
-0.298125,1.0199886327738223
-0.2975,1.0209928396242673
-0.296875,1.0213275752410824
-0.29625,1.0203233683906374
-0.295625,1.0199886327738223
-0.295,1.0193191615401922
-0.294375,1.017980219072932
-0.29375,1.0153023341384115
-0.293125,1.0129591848207062
-0.2925,1.0109507711198158
-0.291875,1.0102812998861856
-0.29125,1.0099465642693706
-0.290625,1.0102812998861856
-0.29,1.0112855067366309
-0.289375,1.0136286560543362
-0.28875,1.0169760122224867
-0.288125,1.0206581040074525
-0.2875,1.024005460175603
-0.286875,1.025344402642863
-0.28625,1.0260138738764932
-0.285625,1.0266833451101234
-0.285,1.0280222875773837
-0.284375,1.0296959656614588
-0.28375,1.030365436895089
-0.283125,1.0293612300446437
-0.2825,1.0273528163437535
-0.281875,1.024340195792418
-0.28125,1.0219970464747126
-0.280625,1.0206581040074525
-0.28,1.0203233683906374
-0.279375,1.0206581040074525
-0.27875,1.0219970464747126
-0.278125,1.024674931409233
-0.2775,1.0286917588110136
-0.276875,1.0317043793623493
-0.27625,1.0320391149791643
-0.275625,1.0296959656614588
-0.275,1.0263486094933083
-0.274375,1.0219970464747126
-0.27375,1.0166412766056718
-0.273125,1.0099465642693706
-0.2725,1.0025823806994394
-0.271875,0.9948834615126932
-0.27125,0.987854013559577
-0.270625,0.9818287724569061
-0.27,0.9758035313542351
-0.269375,0.9697782902515641
-0.26875,0.9644225203825233
-0.268125,0.9594014861302974
-0.2675,0.9543804518780716
-0.266875,0.9476857395417706
-0.26625,0.9403215559718393
-0.265625,0.9309489587010178
-0.265,0.9209068901965662
-0.264375,0.9091911436080393
-0.26375,0.8974753970195124
-0.263125,0.8864291216646156
-0.2625,0.8773912600106091
-0.261875,0.8700270764406779
-0.26125,0.864001835338007
-0.260625,0.8606544791698564
-0.26,0.8589808010857811
-0.259375,0.8596502723194113
-0.25875,0.8599850079362263
-0.258125,0.8599850079362263
-0.2575,0.858646065468966
-0.256875,0.8576418586185209
-0.25625,0.858311329852151
-0.255625,0.8596502723194113
-0.255,0.8609892147866715
-0.254375,0.8619934216371166
-0.25375,0.8626628928707467
-0.253125,0.8643365709548221
-0.2525,0.8670144558893425
-0.251875,0.8713660189079382
-0.25125,0.8773912600106091
-0.250625,0.8854249148141704
-0.25,0.8961364545522522
-0.249375,0.9081869367575941
-0.24875,0.9215763614301963
-0.248125,0.9356352573364286
-0.2475,0.9486899463922157
-0.246875,0.9620793710648179
-0.24625,0.9764730025878652
-0.245625,0.9918708409613577
-0.245,1.0072686793348502
-0.244375,1.0213275752410824
-0.24375,1.0327085862127943
-0.243125,1.0434201259508762
-0.2425,1.0537969300721428
-0.241875,1.0645084698102245
-0.24125,1.0758894807819364
-0.240625,1.0879399629872784
-0.24,1.0999904451926203
-0.239375,1.1113714561643322
-0.23875,1.1214135246687837
-0.238125,1.1304513863227903
-0.2375,1.1398239835936117
-0.236875,1.1488618452476183
-0.23625,1.1572302356679947
-0.235625,1.1635902123874806
-0.235,1.1696154534901515
-0.234375,1.1753059589760075
-0.23375,1.1806617288450483
-0.233125,1.1843438206300139
-0.2325,1.1873564411813495
-0.231875,1.1883606480317945
-0.23125,1.1890301192654247
-0.230625,1.1893648548822398
-0.23,1.190369061732685
-0.229375,1.191708004199945
-0.22875,1.1933816822840204
-0.228125,1.1940511535176506
-0.2275,1.1933816822840204
-0.226875,1.1920427398167601
-0.22625,1.1893648548822398
-0.225625,1.185348027480459
-0.225,1.1809964644618633
-0.224375,1.1753059589760075
-0.22375,1.1686112466397065
-0.223125,1.1605775918361452
-0.2225,1.1518744657989537
-0.221875,1.1431713397617622
-0.22125,1.135807156191831
-0.220625,1.1304513863227903
-0.22,1.1271040301546398
-0.219375,1.1254303520705644
-0.21875,1.123756673986489
-0.218125,1.122417731519229
-0.2175,1.1210787890519687
-0.216875,1.1194051109678935
-0.21625,1.116727226033373
-0.215625,1.1120409273979623
-0.215,1.1060156862952912
-0.214375,1.0989862383421751
-0.21375,1.092291526005874
-0.213125,1.086266284903203
-0.2125,1.0805757794173472
-0.211875,1.0752200095483062
-0.21125,1.0695295040624504
-0.210625,1.0641737341934094
-0.21,1.0594874355579986
-0.209375,1.0568095506234783
-0.20875,1.0551358725394029
-0.208125,1.054801136922588
-0.2075,1.0537969300721428
-0.206875,1.0521232519880674
-0.20625,1.049110631436732
-0.205625,1.0457632752685815
-0.205,1.0410769766331707
-0.204375,1.036725413614575
-0.20375,1.0327085862127943
-0.203125,1.0296959656614588
-0.2025,1.0266833451101234
-0.201875,1.0230012533251578
-0.20125,1.0193191615401922
-0.200625,1.0163065409888568
-0.2,1.013293920437521
-0.199375,1.011620242353446
-0.19875,1.0129591848207062
-0.198125,1.0166412766056718
-0.1975,1.0219970464747126
-0.196875,1.0266833451101234
-0.19625,1.0286917588110136
-0.195625,1.0283570231941987
-0.195,1.0256791382596782
-0.194375,1.0213275752410824
-0.19375,1.0166412766056718
-0.193125,1.0126244492038912
-0.1925,1.0099465642693706
-0.191875,1.0089423574189256
-0.19125,1.0096118286525555
-0.190625,1.011620242353446
-0.19,1.0153023341384115
-0.189375,1.0196538971570073
-0.18875,1.024340195792418
-0.188125,1.0286917588110136
-0.1875,1.0317043793623493
-0.186875,1.0327085862127943
-0.18625,1.0333780574464244
-0.185625,1.0330433218296093
-0.185,1.0320391149791643
-0.184375,1.0293612300446437
-0.18375,1.0263486094933083
-0.183125,1.023670724558788
-0.1825,1.0223317820915276
-0.181875,1.0216623108578975
-0.18125,1.0223317820915276
-0.180625,1.0223317820915276
-0.18,1.0226665177083427
-0.179375,1.0230012533251578
-0.17875,1.023670724558788
-0.178125,1.024674931409233
-0.1775,1.0263486094933083
-0.176875,1.0270180807269385
-0.17625,1.0270180807269385
-0.175625,1.0256791382596782
-0.175,1.024005460175603
-0.174375,1.0226665177083427
-0.17375,1.0223317820915276
-0.173125,1.0223317820915276
-0.1725,1.0223317820915276
-0.171875,1.0219970464747126
-0.17125,1.0206581040074525
-0.170625,1.0193191615401922
-0.17,1.018314954689747
-0.169375,1.017980219072932
-0.16875,1.0189844259233771
-0.168125,1.0199886327738223
-0.1675,1.0203233683906374
-0.166875,1.0216623108578975
-0.16625,1.0223317820915276
-0.165625,1.023670724558788
-0.165,1.025009667026048
-0.164375,1.0256791382596782
-0.16375,1.024340195792418
-0.163125,1.0226665177083427
-0.1625,1.0203233683906374
-0.161875,1.0169760122224867
-0.16125,1.0139633916711512
-0.160625,1.0142981272879663
-0.16,1.0169760122224867
-0.159375,1.0196538971570073
-0.15875,1.0213275752410824
-0.158125,1.0223317820915276
-0.1575,1.0223317820915276
-0.156875,1.0223317820915276
-0.15625,1.0213275752410824
-0.155625,1.0209928396242673
-0.155,1.0203233683906374
-0.154375,1.0189844259233771
-0.15375,1.0169760122224867
-0.153125,1.0149675985215965
-0.1525,1.0126244492038912
-0.151875,1.0112855067366309
-0.15125,1.0106160355030007
-0.150625,1.011954977970261
-0.15,1.0136286560543362
-0.149375,1.0153023341384115
-0.14875,1.0166412766056718
-0.148125,1.017980219072932
-0.1475,1.0189844259233771
-0.146875,1.0193191615401922
-0.14625,1.018649690306562
-0.145625,1.0176454834561168
-0.145,1.0166412766056718
-0.144375,1.0156370697552266
-0.14375,1.0146328629047814
-0.143125,1.0139633916711512
-0.1425,1.013293920437521
-0.141875,1.012289713587076
-0.14125,1.0109507711198158
-0.140625,1.0102812998861856
-0.14,1.0106160355030007
-0.139375,1.011620242353446
-0.13875,1.0136286560543362
-0.138125,1.0159718053720417
-0.1375,1.017980219072932
-0.136875,1.0193191615401922
-0.13625,1.0203233683906374
-0.135625,1.0203233683906374
-0.135,1.0196538971570073
-0.134375,1.0173107478393018
-0.13375,1.0146328629047814
-0.133125,1.011954977970261
-0.1325,1.0102812998861856
-0.131875,1.0096118286525555
-0.13125,1.0092770930357406
-0.130625,1.0092770930357406
-0.13,1.0096118286525555
-0.129375,1.0102812998861856
-0.12875,1.011954977970261
-0.128125,1.0142981272879663
-0.1275,1.0163065409888568
-0.126875,1.017980219072932
-0.12625,1.018314954689747
-0.125625,1.0159718053720417
-0.125,1.011954977970261
-0.124375,1.0076034149516653
-0.12375,1.0042560587835148
-0.123125,1.0019129094658092
-0.1225,1.0009087026153642
-0.121875,1.0012434382321793
-0.12125,1.0022476450826243
-0.120625,1.0039213231666997
-0.12,1.004925530017145
-0.119375,1.006264472484405
-0.11875,1.0082728861852954
-0.118125,1.011620242353446
-0.1175,1.0153023341384115
-0.116875,1.018649690306562
-0.11625,1.0199886327738223
-0.115625,1.0199886327738223
-0.115,1.0176454834561168
-0.114375,1.0146328629047814
-0.11375,1.012289713587076
-0.113125,1.0106160355030007
-0.1125,1.0102812998861856
-0.111875,1.0106160355030007
-0.11125,1.0109507711198158
-0.110625,1.013293920437521
-0.11,1.0173107478393018
-0.109375,1.0226665177083427
-0.10875,1.0266833451101234
-0.108125,1.0296959656614588
-0.1075,1.0320391149791643
-0.106875,1.0327085862127943
-0.10625,1.0330433218296093
-0.105625,1.0327085862127943
-0.105,1.030365436895089
-0.104375,1.0266833451101234
-0.10375,1.023670724558788
-0.103125,1.0209928396242673
-0.1025,1.0189844259233771
-0.101875,1.0169760122224867
-0.10125,1.0159718053720417
-0.100625,1.0173107478393018
-0.1,1.0203233683906374
-0.099375,1.0233359889419729
-0.09875,1.0270180807269385
-0.098125,1.030700172511904
-0.0975,1.0337127930632395
-0.096875,1.0343822642968696
-0.09625,1.0323738505959792
-0.095625,1.0283570231941987
-0.095,1.023670724558788
-0.094375,1.0189844259233771
-0.09375,1.0159718053720417
-0.093125,1.0136286560543362
-0.0925,1.012289713587076
-0.091875,1.0129591848207062
-0.09125,1.0146328629047814
-0.090625,1.0159718053720417
-0.09,1.0166412766056718
-0.089375,1.0159718053720417
-0.08875,1.0146328629047814
-0.088125,1.0139633916711512
-0.0875,1.013293920437521
-0.086875,1.0126244492038912
-0.08625,1.012289713587076
-0.085625,1.011954977970261
-0.085,1.0112855067366309
-0.084375,1.0096118286525555
-0.08375,1.0069339437180351
-0.083125,1.0025823806994394
-0.0825,0.9985655532976588
-0.081875,0.9958876683631384
-0.08125,0.9942139902790631
-0.080625,0.9942139902790631
-0.08,0.9955529327463233
-0.079375,0.9972266108303985
-0.07875,0.999569760148104
-0.078125,1.0029171163162545
-0.0775,1.00592973686759
-0.076875,1.0076034149516653
-0.07625,1.0082728861852954
-0.075625,1.0079381505684804
-0.075,1.006264472484405
-0.074375,1.0039213231666997
-0.07375,1.0009087026153642
-0.073125,0.9978960820640287
-0.0725,0.9948834615126932
-0.071875,0.993209783428618
-0.07125,0.993544519045433
-0.070625,0.9955529327463233
-0.07,0.9989002889144739
-0.069375,1.0029171163162545
-0.06875,1.0072686793348502
-0.068125,1.0106160355030007
-0.0675,1.011954977970261
-0.066875,1.012289713587076
-0.06625,1.0112855067366309
-0.065625,1.0086076218021105
-0.065,1.004925530017145
-0.064375,1.0012434382321793
-0.06375,0.9992350245312889
-0.063125,0.9992350245312889
-0.0625,1.0012434382321793
-0.061875,1.0045907944003298
-0.06125,1.0076034149516653
-0.060625,1.0079381505684804
-0.06,1.0069339437180351
-0.059375,1.00526026563396
-0.05875,1.0042560587835148
-0.058125,1.004925530017145
-0.0575,1.0069339437180351
-0.056875,1.0089423574189256
-0.05625,1.0096118286525555
-0.055625,1.0096118286525555
-0.055,1.0082728861852954
-0.054375,1.0045907944003298
-0.05375,0.999904495764919
-0.053125,0.9962224039799534
-0.0525,0.993544519045433
-0.051875,0.9918708409613577
-0.05125,0.9918708409613577
-0.050625,0.993879254662248
-0.05,0.9968918752135836
-0.049375,0.999569760148104
-0.04875,1.0019129094658092
-0.048125,1.0032518519330695
-0.0475,1.0025823806994394
-0.046875,1.0005739669985492
-0.04625,0.9985655532976588
-0.045625,0.9968918752135836
-0.045,0.9955529327463233
-0.044375,0.993879254662248
-0.04375,0.9908666341109126
-0.043125,0.9868498067091319
-0.0425,0.9845066573914265
-0.041875,0.9831677149241663
-0.04125,0.9835024505409814
-0.040625,0.9841719217746114
-0.04,0.9848413930082416
-0.039375,0.9851761286250567
-0.03875,0.9858455998586867
-0.038125,0.9865150710923168
-0.0375,0.9875192779427621
-0.036875,0.9891929560268373
-0.03625,0.9905318984940975
-0.035625,0.9898624272604674
-0.035,0.987854013559577
-0.034375,0.9845066573914265
-0.03375,0.9801550943728308
-0.033125,0.9764730025878652
-0.0325,0.9747993245037899
-0.031875,0.9747993245037899
-0.03125,0.9761382669710501
-0.030625,0.9778119450551255
-0.03,0.9808245656064609
-0.029375,0.9841719217746114
-0.02875,0.9865150710923168
-0.028125,0.9865150710923168
-0.0275,0.9851761286250567
-0.026875,0.9828329793073513
-0.02625,0.981159301223276
-0.025625,0.9798203587560158
-0.025,0.9774772094383104
-0.024375,0.9744645888869748
-0.02375,0.9714519683356394
-0.023125,0.9701130258683792
-0.0225,0.9711172327188243
-0.021875,0.9734603820365297
-0.02125,0.975134060120605
-0.020625,0.9771424738214953
-0.02,0.9781466806719404
-0.019375,0.9791508875223857
-0.01875,0.9808245656064609
-0.018125,0.9828329793073513
-0.0175,0.9851761286250567
-0.016875,0.9868498067091319
-0.01625,0.9875192779427621
-0.015625,0.9875192779427621
-0.015,0.9868498067091319
-0.014375,0.9865150710923168
-0.01375,0.9861803354755018
-0.013125,0.9865150710923168
-0.0125,0.9881887491763921
-0.011875,0.9901971628772824
-0.01125,0.9912013697277277
-0.010625,0.9908666341109126
-0.01,0.9908666341109126
-0.009375,0.9922055765781728
-0.00875,0.9958876683631384
-0.008125,1.000239231381734
-0.0075,1.0042560587835148
-0.006875,1.0072686793348502
-0.00625,1.0092770930357406
-0.005625,1.0102812998861856
-0.005,1.0099465642693706
-0.004375,1.0096118286525555
-0.00375,1.0096118286525555
-0.003125,1.0096118286525555
-0.0025,1.0099465642693706
-0.001875,1.0109507711198158
-0.00125,1.013293920437521
-0.000625,1.0169760122224867
0,1.0216623108578975
0.000625,1.0256791382596782
0.00125,1.0290264944278287
0.001875,1.0317043793623493
0.0025,1.0337127930632395
0.003125,1.0343822642968696
0.00375,1.0347169999136847
0.004375,1.0347169999136847
0.005,1.0353864711473149
0.005625,1.0363906779977599
0.00625,1.0380643560818352
0.006875,1.0390685629322804
0.0075,1.0380643560818352
0.008125,1.0360559423809448
0.00875,1.0353864711473149
0.009375,1.03706014923139
0.01,1.0414117122499857
0.010625,1.0464327465022116
0.01125,1.0524579876048825
0.011875,1.0584832287075536
0.0125,1.0631695273429642
0.013125,1.0655126766606697
0.01375,1.0658474122774848
0.014375,1.0651779410438547
0.015,1.0641737341934094
0.015625,1.062500056109334
0.01625,1.0594874355579986
0.016875,1.056140079389848
0.0175,1.0531274588385127
0.018125,1.0524579876048825
0.01875,1.0541316656889579
0.019375,1.0578137574739235
0.02,1.062500056109334
0.020625,1.0668516191279298
0.02125,1.0705337109128954
0.021875,1.073546331464231
0.0225,1.074215802697861
0.023125,1.073546331464231
0.02375,1.0722073889969708
0.024375,1.0708684465297105
0.025,1.0691947684456353
0.025625,1.06752109036156
0.02625,1.0648432054270396
0.026875,1.0628347917261491
0.0275,1.0618305848757041
0.028125,1.061495849258889
0.02875,1.061495849258889
0.029375,1.0621653204925192
0.03,1.0628347917261491
0.030625,1.0638389985765944
0.03125,1.0651779410438547
0.031875,1.0665168835111147
0.0325,1.0671863547447449
0.033125,1.0671863547447449
0.03375,1.0665168835111147
0.034375,1.0645084698102245
0.035,1.0601569067916288
0.035625,1.056140079389848
0.03625,1.0527927232216976
0.036875,1.0507843095208074
0.0375,1.048775895819917
0.038125,1.0471022177358418
0.03875,1.0447590684181363
0.039375,1.0430853903340611
0.04,1.042750654717246
0.040625,1.0450938040349513
0.04125,1.048775895819917
0.041875,1.0537969300721428
0.0425,1.0588179643243687
0.043125,1.0621653204925192
0.04375,1.0628347917261491
0.044375,1.061495849258889
0.045,1.0591526999411836
0.045625,1.056140079389848
0.04625,1.0534621944553277
0.046875,1.0511190451376224
0.0475,1.049445367053547
0.048125,1.048775895819917
0.04875,1.049445367053547
0.049375,1.0511190451376224
0.05,1.054466401305773
0.050625,1.0584832287075536
0.05125,1.0621653204925192
0.051875,1.0645084698102245
0.0525,1.0651779410438547
0.053125,1.0651779410438547
0.05375,1.0661821478942999
0.054375,1.0671863547447449
0.055,1.0671863547447449
0.055625,1.0655126766606697
0.05625,1.0628347917261491
0.056875,1.0598221711748137
0.0575,1.0574790218571084
0.058125,1.055470608156218
0.05875,1.054466401305773
0.059375,1.055470608156218
0.06,1.0588179643243687
0.060625,1.0641737341934094
0.06125,1.0701989752960803
0.061875,1.0752200095483062
0.0625,1.0789021013332718
0.063125,1.079906308183717
0.06375,1.0789021013332718
0.064375,1.0772284232491967
0.065,1.0758894807819364
0.065625,1.074550538314676
0.06625,1.0722073889969708
0.066875,1.0695295040624504
0.0675,1.0661821478942999
0.068125,1.062500056109334
0.06875,1.061161113642074
0.069375,1.0621653204925192
0.07,1.0631695273429642
0.070625,1.0638389985765944
0.07125,1.0651779410438547
0.071875,1.067855825978375
0.0725,1.0712031821465255
0.073125,1.074215802697861
0.07375,1.0762242163987514
0.074375,1.0768936876323816
0.075,1.074215802697861
0.075625,1.0695295040624504
0.07625,1.0635042629597793
0.076875,1.0581484930907386
0.0775,1.0534621944553277
0.078125,1.0504495739039923
0.07875,1.049445367053547
0.079375,1.0511190451376224
0.08,1.0537969300721428
0.080625,1.0571442862402933
0.08125,1.0591526999411836
0.081875,1.0594874355579986
0.0825,1.0584832287075536
0.083125,1.0574790218571084
0.08375,1.0564748150066632
0.084375,1.054801136922588
0.085,1.0527927232216976
0.085625,1.0507843095208074
0.08625,1.0481064245862868
0.086875,1.0457632752685815
0.0875,1.0430853903340611
0.088125,1.0410769766331707
0.08875,1.0400727697827254
0.089375,1.0400727697827254
0.09,1.0410769766331707
0.090625,1.0417464478668008
0.09125,1.042750654717246
0.091875,1.0444243328013212
0.0925,1.0457632752685815
0.093125,1.0460980108853966
0.09375,1.0450938040349513
0.094375,1.042415919100431
0.095,1.0390685629322804
0.095625,1.0363906779977599
0.09625,1.0347169999136847
0.096875,1.0330433218296093
0.0975,1.030030701278274
0.098125,1.0263486094933083
0.09875,1.024340195792418
0.099375,1.023670724558788
0.1,1.025009667026048
0.100625,1.0270180807269385
0.10125,1.0290264944278287
0.101875,1.030030701278274
0.1025,1.030030701278274
0.103125,1.0290264944278287
0.10375,1.0273528163437535
0.104375,1.025009667026048
0.105,1.0230012533251578
0.105625,1.0209928396242673
0.10625,1.0199886327738223
0.106875,1.0203233683906374
0.1075,1.0219970464747126
0.108125,1.024005460175603
0.10875,1.024674931409233
0.109375,1.024340195792418
0.11,1.024340195792418
0.110625,1.025009667026048
0.11125,1.0263486094933083
0.111875,1.0276875519605686
0.1125,1.0280222875773837
0.113125,1.0266833451101234
0.11375,1.0219970464747126
0.114375,1.0173107478393018
0.115,1.0142981272879663
0.115625,1.0129591848207062
0.11625,1.011954977970261
0.116875,1.011620242353446
0.1175,1.012289713587076
0.118125,1.013293920437521
0.11875,1.012289713587076
0.119375,1.0106160355030007
0.12,1.0092770930357406
0.120625,1.0099465642693706
0.12125,1.011620242353446
0.121875,1.0139633916711512
0.1225,1.0156370697552266
0.123125,1.0163065409888568
0.12375,1.0159718053720417
0.124375,1.0139633916711512
0.125,1.0112855067366309
0.125625,1.0099465642693706
0.12625,1.0092770930357406
0.126875,1.0089423574189256
0.1275,1.0089423574189256
0.128125,1.0102812998861856
0.12875,1.0109507711198158
0.129375,1.011954977970261
0.13,1.0136286560543362
0.130625,1.0163065409888568
0.13125,1.018649690306562
0.131875,1.0199886327738223
0.1325,1.0206581040074525
0.133125,1.0209928396242673
0.13375,1.0209928396242673
0.134375,1.0206581040074525
0.135,1.0196538971570073
0.135625,1.018314954689747
0.13625,1.0169760122224867
0.136875,1.0159718053720417
0.1375,1.0153023341384115
0.138125,1.0153023341384115
0.13875,1.0159718053720417
0.139375,1.0176454834561168
0.14,1.0199886327738223
0.140625,1.0223317820915276
0.14125,1.024674931409233
0.141875,1.0270180807269385
0.1425,1.0280222875773837
0.143125,1.0276875519605686
0.14375,1.0260138738764932
0.144375,1.0230012533251578
0.145,1.0203233683906374
0.145625,1.0176454834561168
0.14625,1.0156370697552266
0.146875,1.0139633916711512
0.1475,1.013293920437521
0.148125,1.0136286560543362
0.14875,1.0166412766056718
0.149375,1.0216623108578975
0.15,1.0263486094933083
0.150625,1.0296959656614588
0.15125,1.0313696437455342
0.151875,1.0310349081287191
0.1525,1.0290264944278287
0.153125,1.0270180807269385
0.15375,1.0263486094933083
0.154375,1.0256791382596782
0.155,1.024005460175603
0.155625,1.0219970464747126
0.15625,1.0209928396242673
0.156875,1.0206581040074525
0.1575,1.0209928396242673
0.158125,1.0216623108578975
0.15875,1.0223317820915276
0.159375,1.023670724558788
0.16,1.0260138738764932
0.160625,1.0276875519605686
0.16125,1.0283570231941987
0.161875,1.0290264944278287
0.1625,1.030030701278274
0.163125,1.0313696437455342
0.16375,1.0313696437455342
0.164375,1.0293612300446437
0.165,1.0256791382596782
0.165625,1.0209928396242673
0.16625,1.0173107478393018
0.166875,1.0153023341384115
0.1675,1.0136286560543362
0.168125,1.0109507711198158
0.16875,1.0082728861852954
0.169375,1.0076034149516653
0.17,1.0086076218021105
0.170625,1.0099465642693706
0.17125,1.0112855067366309
0.171875,1.011620242353446
0.1725,1.0102812998861856
0.173125,1.0079381505684804
0.17375,1.0045907944003298
0.174375,1.0015781738489944
0.175,1.000239231381734
0.175625,1.0009087026153642
0.17625,1.0015781738489944
0.176875,1.000239231381734
0.1775,0.9965571395967685
0.178125,0.9918708409613577
0.17875,0.9885234847932072
0.179375,0.9875192779427621
0.18,0.9885234847932072
0.180625,0.9905318984940975
0.18125,0.993209783428618
0.181875,0.9968918752135836
0.1825,1.0009087026153642
0.183125,1.0029171163162545
0.18375,1.0022476450826243
0.184375,0.999569760148104
0.185,0.9958876683631384
0.185625,0.9928750478118029
0.18625,0.9928750478118029
0.186875,0.993544519045433
0.1875,0.9952181971295082
0.188125,0.9962224039799534
0.18875,0.9975613464472136
0.189375,0.9985655532976588
0.19,1.000239231381734
0.190625,1.0029171163162545
0.19125,1.00592973686759
0.191875,1.0079381505684804
